E(MeV),xs(mb)
1.0e-11,963912.0
1.03223e-11,948847.0
1.06549e-11,934027.0
1.0998399999999998e-11,919435.0
1.13527e-11,905081.0
1.1718599999999999e-11,890949.0
1.2096199999999998e-11,877046.0
1.24861e-11,863358.0
1.2888399999999999e-11,849893.0
1.3303799999999998e-11,836637.0
1.37325e-11,823596.0
1.41751e-11,810757.0000000001
1.4631799999999997e-11,798126.0
1.51034e-11,785692.0
1.5590099999999998e-11,773460.0
1.6092599999999998e-11,761418.0
1.66111e-11,749572.0
1.71465e-11,737910.0
1.7699e-11,726438.0
1.8269399999999998e-11,715145.0
1.88581e-11,704035.0
1.94659e-11,693098.0
2.00931e-11,682340.0
2.0740699999999998e-11,671749.0
2.1408999999999998e-11,661331.0
2.2099099999999997e-11,651076.0
2.28111e-11,640988.0
2.3546399999999998e-11,631058.0
2.4305099999999997e-11,621289.0
2.50884e-11,611674.0
2.5896799999999997e-11,602215.0
2.67315e-11,592905.0
2.75928e-11,583747.0
2.8482199999999998e-11,574733.0
2.93999e-11,565866.0
3.0347499999999995e-11,557139.0
3.13253e-11,548555.0
3.2335e-11,540106.0
3.33769e-11,531795.0
3.44526e-11,523615.00000000006
3.55627e-11,515570.00000000006
3.67089e-11,507652.00000000006
3.7891799999999997e-11,499863.00000000006
3.9113e-11,492197.99999999994
4.0373400000000003e-11,484659.0
4.1674599999999996e-11,477240.0
4.3017399999999996e-11,469942.0
4.440389999999999e-11,462761.0
4.58347e-11,455698.0
4.7311899999999994e-11,448747.99999999994
4.883639999999999e-11,441912.00000000006
5.0410399999999995e-11,435186.0
5.20348e-11,428570.0
5.37119e-11,422061.0
5.54426e-11,415658.99999999994
5.7229499999999995e-11,409360.00000000006
5.907359999999999e-11,403165.99999999994
6.09775e-11,397071.0
6.29424e-11,391077.0
6.497099999999999e-11,385181.0
6.70645e-11,379382.0
6.9226e-11,373677.0
7.145659999999999e-11,368067.0
7.37596e-11,362549.0
7.61364e-11,357123.0
7.85902e-11,351785.0
8.11227e-11,346537.0
8.37372e-11,341374.0
8.643549999999999e-11,336298.0
8.922119999999998e-11,331306.0
9.209619999999999e-11,326398.0
9.506439999999999e-11,321570.0
9.81277e-11,316824.0
1.01291e-10,312156.0
1.04554e-10,307568.0
1.07924e-10,303056.0
1.11402e-10,298621.0
1.1499200000000001e-10,294259.0
1.1869700000000001e-10,289972.0
1.22523e-10,285757.0
1.26471e-10,281614.0
1.30547e-10,277541.0
1.34754e-10,273538.0
1.3909700000000002e-10,269602.0
1.43579e-10,265735.0
1.48207e-10,261933.00000000003
1.52982e-10,258198.00000000003
1.57913e-10,254526.0
1.63347e-10,250680.0
1.6896800000000002e-10,246904.0
1.74782e-10,243199.0
1.80796e-10,239563.00000000003
1.87018e-10,235994.0
1.9345300000000001e-10,232492.0
2.0011000000000002e-10,229056.00000000003
2.06996e-10,225685.0
2.14119e-10,222378.0
2.21487e-10,219132.99999999997
2.2910900000000002e-10,215949.0
2.36993e-10,212827.0
2.45148e-10,209764.00000000003
2.53584e-10,206761.00000000003
2.6231e-10,203815.0
2.7133600000000003e-10,200927.0
2.80673e-10,198094.0
2.90331e-10,195317.0
3.0032199999999997e-10,192595.0
3.10657e-10,189926.0
3.21347e-10,187310.0
3.3240500000000005e-10,184746.0
3.43843e-10,182233.0
3.55675e-10,179771.0
3.67914e-10,177358.0
3.8057400000000004e-10,174994.0
3.9367000000000005e-10,172678.0
4.07217e-10,170409.0
4.2123e-10,168187.0
4.3572499999999996e-10,166011.0
4.51671e-10,163749.0
4.68204e-10,161536.0
4.85339e-10,159373.0
5.03105e-10,157258.0
5.215169999999999e-10,155190.0
5.40607e-10,153170.0
5.60392e-10,151195.0
5.809040000000001e-10,149266.0
6.02164e-10,147381.0
6.24206e-10,145540.0
6.470500000000001e-10,143741.0
6.707340000000001e-10,141985.0
6.95282e-10,140270.0
7.207320000000001e-10,138596.0
7.486919999999999e-10,136866.0
7.77738e-10,135181.0
8.079100000000001e-10,133538.0
8.392530000000001e-10,131938.0
8.718120000000001e-10,130379.0
9.05634e-10,128861.0
9.40768e-10,127382.0
9.772650000000001e-10,125942.0
1.01518e-9,124540.0
1.05679e-9,123101.0
1.1001200000000001e-9,121702.0
1.1452100000000002e-9,120343.0
1.1921600000000002e-9,119022.0
1.2410300000000002e-9,117740.0
1.29191e-9,116494.00000000001
1.34486e-9,115284.00000000001
1.40296e-9,114049.0
1.46356e-9,112850.99999999999
1.5267900000000003e-9,111691.0
1.5927400000000002e-9,110566.00000000001
1.66154e-9,109477.0
1.7369900000000002e-9,108369.0
1.81585e-9,107298.0
1.8983100000000002e-9,106261.0
1.9845e-9,105260.0
2.07899e-9,104246.0
2.17799e-9,103267.0
2.28171e-9,102322.0
2.3954200000000004e-9,101369.0
2.5148000000000005e-9,100450.0
2.64013e-9,99565.40000000001
2.7717000000000003e-9,98712.59999999999
2.91599e-9,97855.7
3.0677900000000002e-9,97031.1
3.23433e-9,96205.20000000001
3.4099e-9,95411.7
3.5950200000000003e-9,94649.2
3.7981900000000005e-9,93887.7
4.01286e-9,93156.9
4.24862e-9,92429.2
4.49825e-9,91731.70000000001
4.7726100000000005e-9,91038.9
5.06372e-9,90375.70000000001
5.38394e-9,89718.5
5.73653e-9,89069.0
6.112230000000001e-9,88448.7
6.52632e-9,87836.9
6.98321e-9,87235.0
7.47208e-9,86661.5
8.01208e-9,86098.2
8.60931e-9,85546.29999999999
9.27066e-9,85006.40000000001
9.98277e-9,84493.7
1.07724e-8,83993.2
1.1649e-8,83505.29999999999
1.26237e-8,83030.8
1.3708800000000001e-8,82569.9
1.4918800000000002e-8,82123.2
1.62699e-8,81690.79999999999
1.78185e-8,81263.40000000001
1.95559e-8,80851.7
2.15082e-8,80455.90000000001
2.37555e-8,80067.90000000001
2.52522e-8,79841.4
2.5299999999999998e-8,79834.6
2.8062100000000002e-8,79470.7
3.12574e-8,79116.6
3.4964300000000004e-8,78773.3
3.9276399999999996e-8,78441.59999999999
4.43075e-8,78122.2
5.0194700000000004e-8,77815.59999999999
5.7105300000000004e-8,77522.3
6.53807e-8,77238.2
7.51725e-8,76968.4
8.69806e-8,76709.2
1.01284e-7,76461.5
1.1894199999999998e-7,76222.9
1.4086399999999998e-7,75994.59999999999
1.6824399999999998e-7,75777.59999999999
2.02653e-7,75572.6
2.46694e-7,75378.2
3.04138e-7,75193.5
3.7974899999999997e-7,75019.90000000001
4.80208e-7,74858.3
6.17606e-7,74707.0
8.09575e-7,74566.40000000001
1.0796099999999999e-6,74438.9
2.30047e-6,74192.2
9.40371e-6,74005.5
9.86218e-6,74005.3
9.744160000000002e-5,75028.3
0.00074799,84175.5
0.0013775999999999999,93658.0
0.00193428,102730.00000000001
0.00244867,111881.00000000001
0.00291877,121065.0
0.00336713,130739.99999999999
0.00378173,140660.0
0.00417535,151129.0
0.00454247,161994.0
0.00487544,172935.0
0.00518493,184177.0
0.0055134400000000005,197426.0
0.00581654,211005.00000000003
0.00610834,225462.0
0.0064154799999999994,242332.0
0.00669086,258967.0
0.00701338,280308.0
0.007375390000000001,306532.0
0.00814467,365615.0
0.00837093,381344.0
0.008551940000000001,392106.0
0.008732950000000001,400504.0
0.00889133,405295.99999999994
0.009049709999999999,407229.0
0.00906102,407243.0
0.00920809,405762.99999999994
0.00934385,401621.99999999994
0.0094796,394680.0
0.009615360000000002,384966.0
0.00975111,372553.0
0.00988687,357749.0
0.0100181,341498.0
0.010181,319146.0
0.010389500000000001,288458.0
0.0106788,244919.00000000003
0.010905,212160.0
0.0110408,193584.0
0.011153900000000001,178957.0
0.0112671,165136.0
0.0113576,154686.0
0.011448100000000001,144785.0
0.011538600000000001,135433.0
0.011629100000000002,126621.99999999999
0.011719599999999998,118341.99999999999
0.011810099999999999,110578.0
0.011900599999999999,103309.99999999999
0.0119911,96520.3
0.0120816,90185.3
0.0121721,84282.8
0.012262599999999999,78789.8
0.012353099999999999,73683.3
0.012443599999999999,68940.59999999999
0.0125341,64539.5
0.0126246,60458.7
0.0127151,56677.5
0.0128056,53176.2
0.012896099999999999,49936.4
0.0129866,46940.200000000004
0.0130771,44170.99999999999
0.0131676,41613.100000000006
0.0132581,39251.9
0.0133486,37073.7
0.0134737,34356.7
0.0135296,33215.5
0.0136201,31512.4
0.013710700000000001,29946.0
0.0138012,28506.399999999998
0.0138917,27184.9
0.0139822,25973.0
0.0140727,24862.899999999998
0.0141632,23847.7
0.014253700000000001,22920.4
0.014344200000000001,22075.100000000002
0.0144347,21305.9
0.0145252,20607.600000000002
0.0146609,19688.5
0.014796700000000001,18890.100000000002
0.0149325,18222.6
0.0150682,17652.600000000002
0.015204,17188.3
0.015339700000000001,16802.8
0.015430200000000002,16592.7
0.0156112,16267.3
0.0157922,16054.2
0.0159732,15939.2
0.0161543,15909.5
0.0163822,15981.6
0.0165163,16063.199999999999
0.0167878,16335.3
0.0170593,16699.7
0.0174213,17319.2
0.0177833,18050.0
0.0183263,19294.6
0.0189825,20951.9
0.0203287,24575.2
0.022218,29675.699999999997
0.0237419,33593.2
0.0253856,37576.200000000004
0.0271957,41675.00000000001
0.029415,46350.8
0.0319447,51312.3
0.035341000000000004,57551.4
0.0453345,75088.7
0.0490676,82080.90000000001
0.0522545,88600.6
0.0549378,94733.59999999999
0.0571974,100574.00000000001
0.0591745,106421.00000000001
0.060812700000000004,112013.0
0.0622814,117856.0
0.0634112,123120.0
0.0644281,128614.0
0.0653319,134368.0
0.06612280000000001,140301.0
0.0668006,146300.0
0.0674785,153421.0
0.0680434,160504.0
0.0684953,167096.0
0.0689472,174679.0
0.0693992,183502.0
0.0698511,193688.0
0.070303,205262.0
0.0711504,228634.0
0.0713763,234299.0
0.0716588,240178.0
0.0718847,243520.0
0.0721107,245337.0
0.0722519,245674.0
0.0724948,244632.0
0.0727321,241916.99999999997
0.073071,235856.00000000003
0.0740948,213003.0
0.07459640000000001,203221.0
0.0750614,195441.0
0.075563,188211.0
0.0761748,180748.0
0.0767866,174681.0
0.0773984,169834.0
0.077949,166477.0
0.07862190000000001,163472.0
0.079374,161224.0
0.0803981,159467.0
0.0837611,156858.0
0.08494389999999999,155073.0
0.0859954,152562.0
0.0865211,150933.0
0.08757250000000001,146901.0
0.088624,141885.0
0.0899646,134292.0
0.0933554,112937.0
0.0944069,106858.00000000001
0.09545830000000001,101479.00000000001
0.0962469,98031.40000000001
0.0971669,94623.8
0.09782410000000001,92674.90000000001
0.0986126,90891.59999999999
0.09940120000000001,89626.5
0.100185,88996.9
0.100701,88841.8
0.10147500000000001,89105.7
0.10223199999999999,89899.5
0.10295300000000002,91073.1
0.103674,92726.1
0.10465,95582.1
0.10563,99118.8
0.10709900000000001,105318.0
0.10856900000000001,111690.0
0.10930400000000001,114592.0
0.110039,116963.0
0.11052800000000002,118136.0
0.111018,118940.0
0.11175299999999999,119385.99999999999
0.112635,118680.99999999999
0.113468,116878.0
0.114357,114006.99999999999
0.115427,109816.0
0.117387,101865.99999999999
0.118367,98397.79999999999
0.119285,95657.3
0.120326,93115.7
0.12130600000000001,91301.79999999999
0.122286,89998.29999999999
0.12351000000000001,89001.0
0.124735,88658.0
0.12498000000000001,88646.2
0.12645,89083.40000000001
0.127919,90255.7
0.129389,92186.90000000001
0.130614,94489.8
0.13159400000000002,96875.7
0.132451,99536.5
0.133186,102362.0
0.133891,105698.0
0.134466,109020.0
0.135042,113023.0
0.13561700000000002,117859.0
0.136049,122151.00000000001
0.13648000000000002,126979.0
0.137055,134335.0
0.138134,149287.0
0.138566,154516.0
0.13892500000000002,157799.0
0.13922,159571.0
0.139493,160391.0
0.139644,160523.0
0.140004,159855.0
0.140436,157630.0
0.141011,153207.0
0.141946,145315.0
0.142521,141135.0
0.143097,137766.0
0.143672,135202.0
0.14439100000000002,133017.0
0.14511000000000002,131736.0
0.145973,131240.0
0.14683600000000002,131744.0
0.147556,133006.0
0.14813099999999998,134795.0
0.148562,136878.0
0.14891000000000001,139336.0
0.149156,141765.0
0.149368,144549.0
0.14958400000000002,148374.0
0.149728,151698.0
0.149872,155847.0
0.150016,160992.0
0.15015900000000001,167186.0
0.150402,178502.0
0.150483,181415.0
0.150543,182796.0
0.15060300000000001,183251.0
0.150657,182754.0
0.150711,181370.0
0.150764,179169.0
0.150849,174334.0
0.151098,157214.0
0.151192,151671.0
0.151285,147141.0
0.151379,143518.0
0.15144100000000002,141543.0
0.151566,138462.0
0.15169100000000002,136278.0
0.151878,134156.0
0.152065,132927.0
0.15232500000000002,132086.0
0.15263400000000002,131809.0
0.15329800000000002,132382.0
0.15444800000000003,134698.0
0.155562,137746.0
0.156535,141195.0
0.157242,144511.0
0.15776400000000002,147636.0
0.15825100000000003,151411.0
0.15864,155410.0
0.15893200000000002,159316.0
0.159175,163484.0
0.15937500000000002,167850.0
0.15957,173292.0
0.1597,177839.0
0.15983000000000003,183380.0
0.15993800000000002,188943.0
0.16004600000000002,195534.0
0.16015500000000002,203145.0
0.16029500000000002,213596.0
0.16036,217533.99999999997
0.160414,219530.0
0.16043600000000002,219837.00000000003
0.160477,219407.0
0.16051700000000002,217377.99999999997
0.16054400000000002,214956.0
0.16057100000000002,211673.0
0.160612,205200.0
0.16065300000000002,197127.0
0.160721,181450.0
0.16077200000000003,169619.0
0.160805,162556.0
0.160837,156395.0
0.160869,150909.0
0.16090100000000002,146194.0
0.16093100000000002,142339.0
0.160976,137894.0
0.161021,134562.0
0.161065,132226.0
0.16109400000000001,131094.0
0.161153,129614.99999999999
0.16120500000000001,128972.0
0.161257,128780.0
0.161354,129221.00000000001
0.161496,130871.0
0.162194,141619.0
0.162727,148746.0
0.163329,155635.0
0.16398500000000002,161923.0
0.164532,166081.0
0.16510100000000003,169169.0
0.16562600000000002,170795.0
0.16617300000000002,171349.0
0.166829,170653.0
0.16770400000000002,168225.0
0.17000200000000001,160068.0
0.17131400000000002,156578.0
0.172627,154284.0
0.17394,153016.0
0.17547100000000002,152564.0
0.17744100000000002,153224.0
0.179628,155207.0
0.182035,158623.0
0.184114,162608.0
0.185341,165826.0
0.18591100000000002,168166.0
0.18621300000000002,170223.0
0.186394,172161.0
0.18651500000000001,174029.0
0.18663600000000002,176670.0
0.186726,179413.0
0.186817,183044.0
0.18687700000000002,186023.0
0.187038,194994.0
0.18709900000000002,197448.0
0.187146,198365.0
0.187163,198428.0
0.187206,197936.0
0.187249,196642.0
0.18732000000000001,193392.0
0.187456,186456.0
0.18755100000000002,182643.0
0.187642,180024.0
0.187763,177685.0
0.187944,175737.0
0.18818500000000002,174655.0
0.18844700000000003,174382.0
0.18913100000000002,175253.0
0.19058,179084.0
0.19279400000000002,186425.0
0.195382,196442.0
0.197749,206961.0
0.19864800000000002,211886.99999999997
0.198989,214598.00000000003
0.199192,217057.0
0.19932700000000003,219564.0
0.19942500000000002,222271.99999999997
0.199518,226040.99999999997
0.199575,229232.0
0.199631,233378.0
0.199696,239568.0
0.199792,250562.0
0.19983900000000002,254926.0
0.19987,256522.0
0.19989,256813.0
0.199917,256257.0
0.199944,254723.0
0.199997,249643.00000000003
0.20009500000000002,239200.0
0.20015900000000003,233836.00000000003
0.200224,229991.0
0.200289,227314.00000000003
0.200386,224763.0
0.20051600000000003,222956.00000000003
0.200719,221873.0
0.20086700000000002,221711.0
0.20153300000000002,222926.0
0.203258,227403.99999999997
0.204268,228815.0
0.204663,228986.0
0.20545100000000002,228594.0
0.20623999999999998,227141.0
0.207028,224589.00000000003
0.20803300000000002,219787.0
0.208999,213865.00000000003
0.210576,202348.99999999997
0.2127,186347.0
0.21360800000000002,180142.0
0.21451699999999999,174547.0
0.21582800000000002,167622.0
0.21713900000000003,161988.0
0.21877800000000003,156498.0
0.219761,153820.0
0.221072,150855.0
0.223039,147332.0
0.225726,143521.0
0.228938,139857.0
0.23287100000000002,136314.0
0.23680400000000001,133778.0
0.24192900000000003,131123.0
0.244265,129143.99999999999
0.24601700000000004,126897.0
0.248032,123580.0
0.252807,114361.0
0.253829,112938.0
0.254121,112805.0
0.254431,113143.0
0.25461700000000004,113958.0
0.254728,114980.0
0.25480200000000003,116084.00000000001
0.25487600000000005,117757.0
0.254932,119587.0
0.254987,122146.0
0.25502400000000003,124388.00000000001
0.255062,127174.00000000001
0.255099,130492.00000000001
0.255184,138694.0
0.255213,140778.0
0.25524300000000005,141794.0
0.255252,141843.0
0.255278,141251.0
0.25530400000000003,139706.0
0.25534,136483.0
0.255429,127231.99999999999
0.255463,124225.00000000001
0.255514,120734.99999999999
0.255564,118136.0
0.25561500000000004,116205.0
0.255682,114351.0
0.25578300000000004,112531.0
0.25591800000000003,111067.99999999999
0.256135,109745.0
0.25650900000000004,108530.0
0.257363,106999.0
0.25925,104807.99999999999
0.26152600000000004,102997.0
0.264141,101730.00000000001
0.26689,101120.00000000001
0.26806800000000003,101055.0
0.271603,101454.0
0.274745,102410.0
0.278122,103997.0
0.28201000000000004,106457.0
0.286213,109878.00000000001
0.290061,113733.0
0.293517,117784.0
0.297523,123217.0
0.30184300000000003,130040.0
0.306163,137834.0
0.309909,145533.0
0.312246,151225.0
0.31364800000000004,155558.0
0.31450500000000003,159114.0
0.315128,162715.0
0.315595,166539.0
0.315907,169989.0
0.31621800000000005,174445.0
0.31684100000000004,185574.0
0.316995,187748.0
0.317149,189058.0
0.317259,189361.0
0.31741,188881.0
0.31763,186822.0
0.31808800000000004,181244.0
0.318355,178806.0
0.31862300000000005,177237.0
0.31902,176182.0
0.31920400000000004,176082.0
0.31971900000000003,176713.0
0.32028,178536.0
0.320815,181311.0
0.321182,184062.0
0.321483,187182.0
0.321683,190025.0
0.32188400000000006,193871.0
0.32205100000000003,198300.0
0.32218800000000003,203200.0
0.322315,209218.0
0.32239700000000004,214005.0
0.32260200000000006,228275.0
0.32266300000000003,231938.00000000003
0.322724,234086.99999999997
0.32274500000000006,234299.0
0.322792,233500.0
0.322838,230787.0
0.32287,227928.0
0.322917,222280.0
0.32307800000000003,199199.0
0.32313600000000003,192170.0
0.323195,186467.0
0.323253,182092.0
0.323291,179783.0
0.323367,176276.0
0.32344400000000006,173883.0
0.323558,171651.0
0.32367300000000004,170397.0
0.32385600000000003,169417.0
0.325017,167440.0
0.325738,165091.0
0.326851,159994.0
0.32807300000000006,154204.0
0.32892800000000005,150849.0
0.32990600000000003,148117.0
0.330884,146509.0
0.33186200000000005,145846.0
0.33235100000000006,145800.0
0.33381700000000003,146529.0
0.335162,148229.0
0.33583,149812.0
0.33629600000000004,151805.0
0.33658000000000005,153845.0
0.336863,156997.0
0.33729600000000004,163448.0
0.33741400000000005,164467.0
0.337486,164644.0
0.337602,164146.0
0.337724,162770.0
0.33806600000000003,157629.0
0.338339,154578.0
0.338612,152676.0
0.339003,151127.0
0.339758,149740.0
0.34531500000000004,145198.0
0.347681,144101.0
0.34913700000000003,143899.0
0.351564,144517.0
0.353991,146179.0
0.356417,148923.0
0.358844,152725.0
0.360785,156732.0
0.36248400000000003,161168.0
0.364032,166232.0
0.365406,171909.0
0.366611,178130.0
0.36768100000000004,184850.0
0.369688,199281.0
0.370223,202215.0
0.370692,203526.0
0.370825,203675.0
0.371093,203412.00000000003
0.371494,201769.0
0.371896,198570.0
0.37229700000000004,194045.0
0.373501,177530.0
0.37397,171910.0
0.374371,168009.0
0.374773,164866.0
0.37530800000000003,161890.0
0.37584300000000004,160018.0
0.376512,158858.0
0.377047,158577.0
0.378118,159203.0
0.37972300000000003,161682.0
0.382801,168307.0
0.395035,197949.0
0.398515,206996.0
0.399392,210210.0
0.39987900000000004,213221.99999999997
0.40017199999999997,216290.0
0.40047,221062.0
0.40065900000000004,224142.99999999997
0.40077999999999997,225162.0
0.40081600000000006,225232.0
0.400967,224396.0
0.40134200000000003,219637.0
0.401598,217662.00000000003
0.401939,216615.0
0.402196,216455.99999999997
0.40321999999999997,217647.0
0.414657,241302.0
0.41768200000000005,247478.0
0.41820500000000005,249707.0
0.41837900000000006,251347.0
0.41852400000000006,253897.0
0.41863300000000003,257349.0
0.41875700000000005,263610.0
0.418822,266810.0
0.41887100000000005,267743.0
0.418922,266672.0
0.41910000000000003,256843.00000000003
0.419184,253918.0
0.419309,251596.99999999997
0.41947599999999996,250310.0
0.41994400000000004,249626.0
0.42154800000000003,250105.99999999997
0.42301900000000003,249365.0
0.42446300000000003,246993.99999999997
0.42591500000000004,242915.0
0.430485,226009.0
0.431947,221702.00000000003
0.433409,218685.99999999997
0.43468900000000005,217418.99999999997
0.435055,217327.0
0.436151,218064.0
0.436982,219762.0
0.437874,223064.99999999997
0.438667,227548.0
0.4394910000000001,233834.0
0.440796,245206.0
0.441346,248566.00000000003
0.44179199999999996,249678.00000000003
0.442211,248841.0
0.44258200000000003,246555.0
0.44299400000000005,242550.0
0.443537,235666.00000000003
0.444612,220836.0
0.445257,212934.0
0.445902,206402.00000000003
0.446655,200356.99999999997
0.44751399999999997,195110.0
0.44848200000000005,190793.0
0.449557,187288.0
0.451077,183915.0
0.45305700000000004,181118.0
0.45569800000000005,178992.0
0.459218,177693.0
0.462299,177411.0
