E(MeV),xs(mb)
1.0e-11,242044.00000000003
1.03223e-11,238246.0
1.06549e-11,234510.0
1.0998399999999998e-11,230831.0
1.13527e-11,227211.0
1.1718599999999999e-11,223647.99999999997
1.2096199999999998e-11,220142.00000000003
1.24861e-11,216690.0
1.2888399999999999e-11,213293.0
1.3303799999999998e-11,209950.0
1.37325e-11,206660.00000000003
1.41751e-11,203420.99999999997
1.4631799999999997e-11,200233.99999999997
1.51034e-11,197096.0
1.5590099999999998e-11,194010.0
1.6092599999999998e-11,190970.0
1.66111e-11,187980.0
1.71465e-11,185037.0
1.7699e-11,182140.0
1.8269399999999998e-11,179289.0
1.88581e-11,176483.0
1.94659e-11,173722.0
2.00931e-11,171004.0
2.0740699999999998e-11,168329.0
2.1408999999999998e-11,165697.0
2.2099099999999997e-11,163106.0
2.28111e-11,160556.0
2.3546399999999998e-11,158047.0
2.4305099999999997e-11,155577.0
2.50884e-11,153146.0
2.5896799999999997e-11,150755.0
2.67315e-11,148400.0
2.75928e-11,146084.0
2.8482199999999998e-11,143803.0
2.93999e-11,141560.0
3.0347499999999995e-11,139351.0
3.13253e-11,137178.0
3.2335e-11,135039.0
3.33769e-11,132934.0
3.44526e-11,130863.0
3.55627e-11,128824.99999999999
3.67089e-11,126818.00000000001
3.7891799999999997e-11,124844.0
3.9113e-11,122901.0
4.0373400000000003e-11,120988.99999999999
4.1674599999999996e-11,119107.99999999999
4.3017399999999996e-11,117256.0
4.440389999999999e-11,115433.99999999999
4.58347e-11,113640.99999999999
4.7311899999999994e-11,111876.0
4.883639999999999e-11,110140.0
5.0410399999999995e-11,108431.00000000001
5.20348e-11,106749.99999999999
5.37119e-11,105095.0
5.54426e-11,103467.0
5.7229499999999995e-11,101864.0
5.907359999999999e-11,100288.0
6.09775e-11,98735.9
6.29424e-11,97209.29999999999
6.497099999999999e-11,95706.90000000001
6.70645e-11,94228.79999999999
6.9226e-11,92774.09999999999
7.145659999999999e-11,91343.0
7.37596e-11,89934.5
7.61364e-11,88548.9
7.85902e-11,87185.2
8.11227e-11,85843.7
8.37372e-11,84523.49999999999
8.643549999999999e-11,83224.7
8.922119999999998e-11,81946.6
9.209619999999999e-11,80689.3
9.506439999999999e-11,79452.0
9.81277e-11,78234.8
1.01291e-10,77036.9
1.04554e-10,75858.9
1.07924e-10,74699.3
1.11402e-10,73558.9
1.1499200000000001e-10,72436.6
1.1869700000000001e-10,71332.8
1.22523e-10,70246.4
1.26471e-10,69178.1
1.30547e-10,68126.6
1.34754e-10,67092.7
1.3909700000000002e-10,66075.1
1.43579e-10,65074.4
1.48207e-10,64089.600000000006
1.52982e-10,63121.200000000004
1.57913e-10,62168.200000000004
1.6300100000000001e-10,61231.1
1.68254e-10,60309.0
1.73676e-10,59402.2
1.79274e-10,58509.9
1.8505000000000002e-10,57632.5
1.91014e-10,56769.2
1.97169e-10,55920.3
2.03524e-10,55085.100000000006
2.1008200000000003e-10,54263.8
2.16853e-10,53455.8
2.2384e-10,52661.2
2.31055e-10,51879.600000000006
2.385e-10,51111.00000000001
2.46187e-10,50354.9
2.5412e-10,49611.4
2.6231e-10,48880.100000000006
2.70762e-10,48160.99999999999
2.7948900000000003e-10,47453.6
2.88494e-10,46758.2
2.9779300000000004e-10,46074.0
3.07388e-10,45401.4
3.1729500000000004e-10,44739.899999999994
3.27519e-10,44089.4
3.38075e-10,43449.600000000006
3.4896900000000003e-10,42820.7
3.6021600000000004e-10,42202.1
3.7182300000000004e-10,41593.9
3.83807e-10,40995.7
3.97014e-10,40368.8
4.1067600000000004e-10,39753.0
4.24808e-10,39148.200000000004
4.39426e-10,38554.3
4.54547e-10,37970.9
4.70189e-10,37398.0
4.863679999999999e-10,36835.3
5.03105e-10,36282.700000000004
5.20417e-10,35740.0
5.38325e-10,35207.0
5.5685e-10,34683.6
5.76012e-10,34169.6
5.95833e-10,33664.9
6.16336e-10,33169.200000000004
6.37545e-10,32682.4
6.59484e-10,32204.4
6.82177e-10,31734.9
7.056520000000001e-10,31274.0
7.29934e-10,30821.3
7.55052e-10,30376.8
7.810340000000001e-10,29940.3
8.079100000000001e-10,29511.6
8.35712e-10,29090.699999999997
8.644690000000001e-10,28677.3
8.942170000000001e-10,28271.4
9.249879999999999e-10,27872.9
9.56818e-10,27481.5
9.89743e-10,27097.1
1.0238000000000001e-9,26719.6
1.05903e-9,26349.0
1.09547e-9,25985.0
1.1331700000000001e-9,25627.6
1.1721600000000002e-9,25276.6
1.2125e-9,24931.899999999998
1.25687e-9,24572.4
1.3028800000000002e-9,24219.8
1.3505600000000001e-9,23873.899999999998
1.4e-9,23534.600000000002
1.4512400000000003e-9,23201.7
1.50436e-9,22875.2
1.55941e-9,22554.8
1.61649e-9,22240.600000000002
1.67565e-9,21932.3
1.7369900000000002e-9,21629.800000000003
1.80056e-9,21333.1
1.86647e-9,21042.0
1.9347700000000003e-9,20756.399999999998
2.0055900000000003e-9,20476.2
2.07899e-9,20201.3
2.1550900000000003e-9,19931.5
2.23397e-9,19666.9
2.31574e-9,19407.2
2.4004900000000003e-9,19152.4
2.4883500000000004e-9,18902.399999999998
2.57942e-9,18657.1
2.6794900000000002e-9,18402.3
2.7834400000000005e-9,18152.7
2.8914300000000002e-9,17907.9
3.0036000000000003e-9,17668.0
3.12012e-9,17432.9
3.24117e-9,17202.4
3.36691e-9,16976.5
3.49753e-9,16755.0
3.6332200000000004e-9,16537.9
3.77417e-9,16325.0
3.92059e-9,16116.4
4.07269e-9,15911.900000000001
4.23069e-9,15711.3
4.39482e-9,15514.8
4.56531e-9,15322.0
4.75247e-9,15122.7
4.94728e-9,14927.5
5.1501e-9,14736.3
5.361220000000001e-9,14549.099999999999
5.5810000000000005e-9,14365.699999999999
5.809780000000001e-9,14186.2
6.04796e-9,14010.3
6.2958700000000005e-9,13838.0
6.5539800000000006e-9,13669.3
6.82264e-9,13504.1
7.1023400000000005e-9,13342.199999999999
7.39348e-9,13183.7
7.712860000000001e-9,13020.300000000001
8.046030000000001e-9,12860.5
8.3936e-9,12704.1
8.75618e-9,12551.1
9.13443e-9,12401.4
9.52901e-9,12254.9
9.94064e-9,12111.6
1.037e-8,11971.300000000001
1.0818000000000001e-8,11834.1
1.1285300000000001e-8,11699.800000000001
1.17978e-8,11561.9
1.2333400000000002e-8,11427.099999999999
1.28935e-8,11295.3
1.34789e-8,11166.6
1.40909e-8,11040.6
1.4730700000000002e-8,10917.6
1.53996e-8,10797.300000000001
1.60988e-8,10679.7
1.68654e-8,10559.300000000001
1.76685e-8,10441.7
1.85098e-8,10326.900000000001
1.93912e-8,10214.8
2.0314600000000002e-8,10105.4
2.1282e-8,9998.49
2.22954e-8,9894.1
2.3406500000000002e-8,9787.58
2.4573e-8,9683.68
2.52522e-8,9626.54
2.5299999999999998e-8,9622.61
2.65609e-8,9522.73
2.78845e-8,9425.29
2.92743e-8,9330.23
3.07982e-8,9233.51
3.24015e-8,9139.25
3.4088300000000004e-8,9047.380000000001
3.58629e-8,8957.86
3.7729800000000003e-8,8870.62
3.97779e-8,8782.1
4.19374e-8,8695.93
4.4213899999999996e-8,8612.05
4.66141e-8,8530.38
4.914450000000001e-8,8450.88
5.1922e-8,8370.42
5.48564e-8,8292.15
5.79568e-8,8216.03
6.12323e-8,8141.99
6.482999999999999e-8,8067.25
6.863889999999999e-8,7994.65
7.267179999999999e-8,7924.11
7.69413e-8,7855.58
8.16343e-8,7786.570000000001
8.66136e-8,7719.610000000001
9.18965e-8,7654.620000000001
9.770830000000001e-8,7589.33
1.03887e-7,7526.01
1.10457e-7,7464.610000000001
1.1769099999999998e-7,7403.05
1.25399e-7,7343.429999999999
1.33611e-7,7285.69
1.42663e-7,7227.929999999999
1.5232799999999999e-7,7172.04
1.62992e-7,7116.25
1.7440199999999998e-7,7062.34
1.87006e-7,7008.639999999999
2.00522e-7,6956.7699999999995
2.15014e-7,6906.67
2.3104099999999998e-7,6856.849999999999
2.48263e-7,6808.79
2.67334e-7,6761.09
2.87869e-7,6715.12
3.10638e-7,6669.570000000001
3.3591799999999995e-7,6624.52
3.63254e-7,6581.209999999999
3.9364699999999995e-7,6538.43
4.27487e-7,6496.24
4.64233e-7,6455.73
5.052069999999999e-7,6415.849999999999
5.50962e-7,6376.64
6.021309999999999e-7,6338.17
6.58053e-7,6301.32
7.20689e-7,6265.21
7.9096e-7,6229.82
8.699210000000001e-7,6195.2
9.58789e-7,6161.37
1.0571799999999999e-6,6128.89
1.2333199999999998e-6,6080.54
1.54321e-6,6015.83
2.12992e-6,5932.62
3.1529999999999997e-6,5843.4400000000005
4.8678499999999995e-6,5754.25
8.00422e-6,5655.04
1.4416500000000002e-5,5520.31
2.6891900000000003e-5,5314.3099999999995
3.13724e-5,5265.82
3.26688e-5,5262.32
3.47938e-5,5280.97
3.62873e-5,5328.2
3.7318500000000005e-5,5391.4400000000005
3.8111900000000004e-5,5467.889999999999
3.892030000000001e-5,5583.97
3.9469400000000005e-5,5694.410000000001
4.00263e-5,5844.21
4.04498e-5,5992.969999999999
4.08773e-5,6184.14
4.116360000000001e-5,6341.99
4.145400000000001e-5,6533.08
4.17444e-5,6763.06
4.1965199999999996e-5,6970.12
4.2186100000000006e-5,7211.16
4.2408000000000005e-5,7494.76
4.263200000000001e-5,7832.530000000001
4.2855900000000004e-5,8234.01
4.30063e-5,8546.67
4.31577e-5,8903.61
4.330910000000001e-5,9310.84
4.34605e-5,9777.73
4.3613000000000004e-5,10319.6
4.3728200000000006e-5,10785.199999999999
4.38434e-5,11307.7
4.395850000000001e-5,11896.3
4.4073700000000005e-5,12562.199999999999
4.418940000000001e-5,13322.8
4.4306200000000006e-5,14200.8
4.438410000000001e-5,14858.1
4.44619e-5,15581.9
4.45398e-5,16380.9
4.4617600000000005e-5,17265.8
4.4695500000000006e-5,18248.899999999998
4.47734e-5,19344.7
4.4833299999999996e-5,20275.9
4.4893200000000006e-5,21293.600000000002
4.49531e-5,22408.7
4.5013100000000004e-5,23634.1
4.5073e-5,24984.4
4.51329e-5,26477.0
4.51929e-5,28132.0
4.525280000000001e-5,29973.5
4.53183e-5,32233.9
4.5362000000000004e-5,33905.8
4.5405700000000005e-5,35728.0
4.5449400000000006e-5,37719.1
4.5493e-5,39900.7
4.553670000000001e-5,42297.799999999996
4.55804e-5,44939.7
4.56204e-5,47605.899999999994
4.5656800000000006e-5,50259.5
4.5693200000000005e-5,53159.9
4.5729600000000003e-5,56338.7
4.5766e-5,59833.0
4.58024e-5,63686.100000000006
4.58388e-5,67949.5
4.58752e-5,72684.1
4.59071e-5,77270.8
4.5934400000000005e-5,81578.0
4.5961700000000004e-5,86277.4
4.598900000000001e-5,91419.09999999999
4.60163e-5,97061.9
4.60436e-5,103275.0
4.6070900000000006e-5,110140.0
4.6098200000000005e-5,117754.0
4.612090000000001e-5,124756.0
4.61482e-5,134063.0
4.61755e-5,144515.0
4.6193700000000005e-5,152214.0
4.621190000000001e-5,160578.0
4.62301e-5,169686.0
4.624830000000001e-5,179625.0
4.6264900000000005e-5,189479.0
4.6287300000000007e-5,204182.0
4.63022e-5,214976.0
4.6317100000000004e-5,226659.0
4.63321e-5,239320.99999999997
4.6347e-5,253060.99999999997
4.63619e-5,267988.0
4.63768e-5,284220.0
4.6391000000000004e-5,300991.0
4.640520000000001e-5,319178.0
4.6419400000000005e-5,338909.0
4.643360000000001e-5,360320.0
4.6447800000000006e-5,383552.0
4.64598e-5,404743.00000000006
4.64744e-5,432454.0
4.64889e-5,462544.0
4.6503500000000006e-5,495181.99999999994
4.6518100000000004e-5,530540.0
4.653260000000001e-5,568783.0
4.654720000000001e-5,610070.0
4.6561700000000005e-5,654547.0
4.65763e-5,702344.0
4.65909e-5,753567.0
4.6605400000000006e-5,808296.0
4.6620000000000004e-5,866578.0
4.6641800000000005e-5,960661.0
4.66637e-5,1.06256e6
4.66855e-5,1.17184e6
4.67073e-5,1.28773e6
4.673650000000001e-5,1.45061e6
4.681650000000001e-5,1.91642e6
4.6845700000000004e-5,2.07652e6
4.6867500000000005e-5,2.18729e6
4.6889300000000005e-5,2.28711e6
4.69112e-5,2.37346e6
4.693450000000001e-5,2.44814e6
4.6957800000000006e-5,2.50258e6
4.697960000000001e-5,2.53372e6
4.700120000000001e-5,2.54469e6
4.7021800000000004e-5,2.53652e6
4.7043700000000005e-5,2.50828e6
4.7065500000000005e-5,2.46075e6
4.7086600000000004e-5,2.39777e6
4.710740000000001e-5,2.32119e6
4.712810000000001e-5,2.23195e6
4.715e-5,2.12666e6
4.71718e-5,2.01228e6
4.72155e-5,1.76691e6
4.72737e-5,1.43398e6
4.73028e-5,1.27584e6
4.7324700000000004e-5,1.16374e6
4.7346500000000005e-5,1.05832e6
4.7368400000000005e-5,960197.9999999999
4.7390200000000006e-5,869730.0
4.7404800000000004e-5,813726.0
4.74193e-5,761146.0
4.74339e-5,711930.0
4.7448400000000005e-5,665992.0
4.7463e-5,623218.0
4.747760000000001e-5,583477.0
4.74921e-5,546623.0
4.750670000000001e-5,512502.0
4.75212e-5,480954.0
4.7535800000000007e-5,451815.00000000006
4.755180000000001e-5,422349.99999999994
4.75678e-5,395390.0
4.758390000000001e-5,370730.0
4.7599900000000005e-5,348173.0
4.76141e-5,329787.0
4.7628300000000006e-5,312785.0
4.7649600000000005e-5,289632.0
4.76709e-5,268986.0
4.7692100000000004e-5,250537.0
4.771340000000001e-5,234005.99999999997
4.77312e-5,221521.0
4.7748900000000006e-5,210078.0
4.7772600000000004e-5,196253.0
4.779620000000001e-5,183861.0
4.7819900000000006e-5,172710.0
4.784360000000001e-5,162639.0
4.78672e-5,153509.0
4.78909e-5,145204.0
4.79191e-5,136242.0
4.79437e-5,129166.0
4.7968200000000006e-5,122685.0
4.8001e-5,114856.0
4.80338e-5,107832.0
4.8066500000000005e-5,101503.00000000001
4.80993e-5,95776.90000000001
4.8132000000000006e-5,90577.29999999999
4.816480000000001e-5,85839.59999999999
4.820120000000001e-5,81050.79999999999
4.823760000000001e-5,76701.3
4.8274000000000006e-5,72737.5
4.8310400000000004e-5,69113.9
4.83468e-5,65791.8
4.84014e-5,61302.1
4.8456000000000005e-5,57322.7
4.851060000000001e-5,53777.2
4.85652e-5,50603.3
4.8619800000000005e-5,47749.49999999999
4.86744e-5,45173.1
4.8729e-5,42838.3
4.8783600000000005e-5,40715.1
4.88382e-5,38778.299999999996
4.8913300000000005e-5,36380.3
4.8974700000000004e-5,34617.3
4.905660000000001e-5,32506.1
4.9138500000000004e-5,30630.1
4.92204e-5,28954.7
4.9302300000000004e-5,27451.6
4.93842e-5,26097.399999999998
4.9466100000000004e-5,24872.800000000003
4.9548e-5,23761.399999999998
4.96354e-5,22685.0
4.97228e-5,21707.6
4.985380000000001e-5,20401.3
4.998490000000001e-5,19257.5
5.0116e-5,18249.8
5.024700000000001e-5,17356.899999999998
5.038000000000001e-5,16551.100000000002
5.05129e-5,15830.900000000001
5.06901e-5,14983.4
5.086730000000001e-5,14244.300000000001
5.1045800000000005e-5,13591.4
5.1225500000000006e-5,13011.2
5.140520000000001e-5,12495.9
5.158500000000001e-5,12035.9
5.185710000000001e-5,11427.9
5.2130500000000005e-5,10905.400000000001
5.24039e-5,10454.699999999999
5.2681100000000006e-5,10057.5
5.2958400000000004e-5,9710.01
5.33306e-5,9307.449999999999
5.37055e-5,8962.070000000002
5.4083000000000004e-5,8663.109999999999
5.4463200000000004e-5,8402.27
5.50388e-5,8069.129999999999
5.5619800000000006e-5,7790.38
5.6206300000000004e-5,7554.509999999999
5.69992e-5,7291.14
5.78034e-5,7073.2699999999995
5.86189e-5,6890.240000000001
5.9865200000000004e-5,6664.55
6.11351e-5,6482.86
6.243490000000001e-5,6332.49
6.4209e-5,6168.21
6.64961e-5,6002.900000000001
6.93504e-5,5843.759999999999
7.334770000000001e-5,5672.64
7.86698e-5,5495.83
8.26254e-5,5393.45
8.4672e-5,5364.59
8.496600000000001e-5,5363.86
8.61647e-5,5378.96
8.69177e-5,5414.4
8.747610000000001e-5,5465.04
8.79373e-5,5532.860000000001
8.839850000000001e-5,5638.429999999999
8.87117e-5,5743.070000000001
8.902490000000002e-5,5887.97
8.923370000000001e-5,6016.28
8.940580000000002e-5,6147.9
8.95778e-5,6309.88
8.97499e-5,6511.2699999999995
8.987900000000001e-5,6695.610000000001
9.00029e-5,6906.679999999999
9.012420000000001e-5,7153.86
9.024550000000001e-5,7451.58
9.032640000000002e-5,7684.87
9.040730000000001e-5,7952.099999999999
9.04882e-5,8259.95
9.056900000000002e-5,8616.81
9.06491e-5,9028.59
9.072910000000001e-5,9512.19
9.07824e-5,9882.92
9.083580000000001e-5,10299.8
9.088910000000001e-5,10770.800000000001
9.09424e-5,11305.8
9.099580000000001e-5,11917.199999999999
9.10474e-5,12596.300000000001
9.1099e-5,13379.6
9.113350000000002e-5,13971.1
9.116790000000001e-5,14627.9
9.12023e-5,15360.5
9.123670000000001e-5,16181.6
9.127110000000001e-5,17106.9
9.13055e-5,18155.8
9.13314e-5,19037.6
9.13572e-5,20014.4
9.1383e-5,21100.3
9.14088e-5,22312.1
9.14346e-5,23669.5
9.14604e-5,25195.4
9.14862e-5,26916.699999999997
9.1512e-5,28864.5
9.15293e-5,30306.3
9.154650000000002e-5,31876.4
9.15688e-5,34131.1
9.15856e-5,35997.5
9.160240000000001e-5,38030.4
9.16192e-5,40245.100000000006
9.16359e-5,42657.99999999999
9.16527e-5,45286.799999999996
9.16695e-5,48149.6
9.168630000000001e-5,51265.799999999996
9.170310000000002e-5,54655.3
9.171980000000001e-5,58338.700000000004
9.17389e-5,62894.8
9.175900000000001e-5,68193.40000000001
9.177910000000001e-5,74015.4
9.179930000000001e-5,80395.7
9.181940000000001e-5,87366.6
9.18404e-5,95296.5
9.186310000000002e-5,104668.0
9.188580000000001e-5,114890.0
9.190720000000001e-5,125279.99999999999
9.192780000000002e-5,136064.0
9.194850000000002e-5,147554.0
9.1976e-5,163936.0
9.200350000000001e-5,181443.0
9.2031e-5,199940.0
9.207240000000001e-5,229117.00000000003
9.215500000000001e-5,289278.0
9.219620000000001e-5,317963.0
9.22238e-5,335686.0
9.22513e-5,351826.0
9.227890000000001e-5,366008.0
9.2305e-5,377353.0
9.233120000000001e-5,386363.0
9.235870000000001e-5,393101.0
9.238619999999999e-5,396854.0
9.240190000000001e-5,397619.0
9.242200000000002e-5,397130.0
9.244960000000001e-5,393804.0
9.24743e-5,388264.0
9.24964e-5,381415.0
9.25239e-5,370497.0
9.255140000000002e-5,357230.0
9.2579e-5,341950.0
9.260650000000001e-5,325026.0
9.264780000000001e-5,297405.0
9.275790000000002e-5,219585.0
9.279920000000002e-5,191918.0
9.28268e-5,174573.0
9.285430000000001e-5,158281.0
9.288180000000001e-5,143139.0
9.290250000000001e-5,132570.0
9.292310000000001e-5,122688.0
9.29424e-5,114083.0
9.29617e-5,106067.0
9.298100000000001e-5,98624.1
9.300020000000001e-5,91736.5
9.30219e-5,84622.6
9.304360000000001e-5,78145.3
9.306530000000001e-5,72264.2
9.308700000000001e-5,66937.4
9.31086e-5,62122.1
9.313140000000001e-5,57580.0
9.315460000000001e-5,53417.6
9.317780000000002e-5,49695.299999999996
9.32011e-5,46367.0
9.322430000000001e-5,43390.2
9.32475e-5,40725.4
9.327070000000001e-5,38337.0
9.3294e-5,36192.799999999996
9.331720000000002e-5,34263.9
9.334040000000001e-5,32524.7
9.336370000000002e-5,30952.600000000002
9.338950000000002e-5,29377.5
9.34153e-5,27960.3
9.34325e-5,27093.0
9.346690000000001e-5,25520.7
9.35013e-5,24135.0
9.353579999999999e-5,22906.300000000003
9.357020000000001e-5,21810.3
9.360460000000001e-5,20827.300000000003
9.3639e-5,19941.3
9.36769e-5,19062.7
9.371470000000001e-5,18270.9
9.377150000000002e-5,17220.4
9.38283e-5,16307.0
9.388510000000001e-5,15506.4
9.394190000000001e-5,14799.7
9.40073e-5,14083.000000000002
9.407260000000002e-5,13453.1
9.413800000000001e-5,12895.9
9.420340000000001e-5,12400.0
9.43015e-5,11752.0
9.43996e-5,11197.999999999998
9.4508e-5,10673.5
9.463710000000002e-5,10144.9
9.476610000000001e-5,9698.980000000001
9.489520000000002e-5,9318.64
9.502430000000001e-5,8991.18
9.515330000000001e-5,8706.849999999999
9.53254e-5,8382.009999999998
9.54975e-5,8106.960000000001
9.566960000000001e-5,7871.610000000001
9.584170000000001e-5,7668.35
9.611700000000002e-5,7395.86
9.63923e-5,7173.29
9.666770000000001e-5,6988.42
9.694300000000001e-5,6832.78
9.728490000000002e-5,6671.04
9.779780000000001e-5,6477.16
9.831070000000001e-5,6325.2699999999995
9.900420000000002e-5,6165.77
9.969770000000001e-5,6042.67
0.000100753,5900.54
0.000101817,5793.25
0.00010325400000000001,5684.2300000000005
0.00010544400000000002,5564.549999999999
0.00010844000000000001,5449.82
0.00011230800000000001,5343.5
0.00011878200000000002,5213.599999999999
0.000129198,5056.25
0.00014966800000000002,4805.34
0.000185967,4380.7
0.000203686,4146.37
0.000215426,3967.77
0.000224673,3805.13
0.00023227000000000002,3648.73
0.00024258000000000003,3403.9199999999996
0.000244241,3380.02
0.000244794,3378.23
0.000245585,3385.7
0.000246375,3412.7900000000004
0.000246968,3454.9500000000003
0.000247363,3499.5
0.000247759,3563.46
0.000248095,3639.27
0.000248371,3722.1099999999997
0.00024864799999999997,3830.01
0.00024885600000000004,3932.7000000000003
0.000249063,4059.7899999999995
0.000249261,4210.07
0.000249409,4346.57
0.000249557,4508.639999999999
0.000249706,4702.47
0.000249804,4853.259999999999
0.0002499,5019.32
0.000249993,5202.099999999999
0.000250086,5410.26
0.000250179,5648.54
0.000250272,5922.92
0.000250365,6240.95
0.000250434,6513.92
0.000250504,6822.14
0.000250574,7172.150000000001
0.00025062799999999997,7476.530000000001
0.000250689,7865.22
0.00025075,8307.470000000001
0.000250796,8680.880000000001
0.00025084200000000004,9096.41
0.000250888,9561.17
0.000250934,10083.800000000001
0.00025098,10674.8
0.000251026,11347.1
0.000251057,11848.300000000001
0.00025108700000000004,12398.1
0.000251127,13189.900000000001
0.000251156,13853.4
0.00025118600000000003,14584.999999999998
0.000251216,15393.6
0.000251245,16288.9
0.000251275,17282.0
0.000251305,18385.3
0.000251334,19612.4
0.000251364,20978.6
0.000251394,22500.8
0.000251421,24078.300000000003
0.000251448,25758.3
0.000251475,27610.100000000002
0.00025150100000000006,29650.6
0.00025152800000000005,31897.000000000004
0.00025155500000000004,34368.3
0.000251581,37083.6
0.000251608,40063.3
0.000251635,43327.600000000006
