E(MeV),xs(mb)
1.0e-11,4.9523e6
1.03223e-11,4.87439e6
1.06549e-11,4.79774e6
1.0998399999999998e-11,4.72227e6
1.13527e-11,4.64802e6
1.1718599999999999e-11,4.5749e6
1.2096199999999998e-11,4.50296e6
1.24861e-11,4.43213e6
1.2888399999999999e-11,4.36244e6
1.3303799999999998e-11,4.29382e6
1.37325e-11,4.22631e6
1.41751e-11,4.1598300000000005e6
1.4631799999999997e-11,4.09443e6
1.51034e-11,4.03003e6
1.5590099999999998e-11,3.96666e6
1.6092599999999998e-11,3.90428e6
1.66111e-11,3.84289e6
1.71465e-11,3.78245e6
1.7699e-11,3.72299e6
1.8269399999999998e-11,3.66444e6
1.88581e-11,3.60683e6
1.94659e-11,3.55011e6
2.00931e-11,3.4943e6
2.0740699999999998e-11,3.43935e6
2.1408999999999998e-11,3.38528e6
2.2099099999999997e-11,3.33205e6
2.28111e-11,3.27967e6
2.3546399999999998e-11,3.22811e6
2.4305099999999997e-11,3.17736e6
2.50884e-11,3.12741e6
2.5896799999999997e-11,3.07825e6
2.67315e-11,3.02985e6
2.75928e-11,2.98223e6
2.8482199999999998e-11,2.93535e6
2.93999e-11,2.88922e6
3.0347499999999995e-11,2.8438e6
3.13253e-11,2.79911e6
3.2335e-11,2.75511e6
3.33769e-11,2.71181e6
3.44526e-11,2.66919e6
3.55627e-11,2.62725e6
3.67089e-11,2.58596e6
3.7891799999999997e-11,2.54533e6
3.9113e-11,2.50533e6
4.0373400000000003e-11,2.46596e6
4.1674599999999996e-11,2.42721e6
4.3017399999999996e-11,2.38908e6
4.440389999999999e-11,2.35154e6
4.58347e-11,2.3146e6
4.7311899999999994e-11,2.27824e6
4.883639999999999e-11,2.24245e6
5.0410399999999995e-11,2.20723e6
5.20348e-11,2.17256e6
5.37119e-11,2.13843e6
5.54426e-11,2.10485e6
5.7229499999999995e-11,2.07179e6
5.907359999999999e-11,2.03926e6
6.09775e-11,2.0072299999999998e6
6.29424e-11,1.97572e6
6.497099999999999e-11,1.94469e6
6.70645e-11,1.91416e6
6.9226e-11,1.88411e6
7.145659999999999e-11,1.85454e6
7.37596e-11,1.82542e6
7.61364e-11,1.79677e6
7.85902e-11,1.76857e6
8.11227e-11,1.74082e6
8.37372e-11,1.71349e6
8.643549999999999e-11,1.68661e6
8.922119999999998e-11,1.66014e6
9.209619999999999e-11,1.6341e6
9.506439999999999e-11,1.60846e6
9.81277e-11,1.58323e6
1.01291e-10,1.55839e6
1.04554e-10,1.53396e6
1.07924e-10,1.50989e6
1.11402e-10,1.48622e6
1.1499200000000001e-10,1.46291e6
1.1869700000000001e-10,1.43998e6
1.22523e-10,1.4174e6
1.26471e-10,1.39519e6
1.30547e-10,1.37332e6
1.34754e-10,1.3518e6
1.3909700000000002e-10,1.33061e6
1.43579e-10,1.30977e6
1.48207e-10,1.28924e6
1.52982e-10,1.26905e6
1.57913e-10,1.24917e6
1.6300100000000001e-10,1.22961e6
1.68254e-10,1.21035e6
1.73676e-10,1.1914e6
1.79274e-10,1.17275e6
1.8505000000000002e-10,1.15439e6
1.91014e-10,1.13632e6
1.97169e-10,1.11854e6
2.03524e-10,1.10104e6
2.1008200000000003e-10,1.08381e6
2.16853e-10,1.06686e6
2.2384e-10,1.05017e6
2.31055e-10,1.03375e6
2.385e-10,1.01759e6
2.46187e-10,1.0016799999999999e6
2.5412e-10,986020.0000000001
2.6231e-10,970607.0
2.70762e-10,955442.0
2.7948900000000003e-10,940513.0
2.88494e-10,925822.0
2.9779300000000004e-10,911361.0
3.07388e-10,897131.0000000001
3.1729500000000004e-10,883122.0
3.27519e-10,869337.0
3.38075e-10,855767.0
3.4896900000000003e-10,842414.9999999999
3.6021600000000004e-10,829270.0
3.7182300000000004e-10,816336.0000000001
3.83807e-10,803603.0
3.96174e-10,791073.0
4.08943e-10,778739.0
4.2212e-10,766602.0
4.3572499999999996e-10,754655.0
4.4976500000000005e-10,742898.0
4.6426100000000007e-10,731324.0
4.79221e-10,719936.0
4.94666e-10,708725.0
5.10605e-10,697693.0
5.270620000000001e-10,686834.0
5.440450000000001e-10,676147.0
5.6158e-10,665628.0
5.796750000000001e-10,655276.0
5.98358e-10,645086.0
6.176389999999999e-10,635058.0
6.37545e-10,625187.0
6.58089e-10,615474.0
6.79298e-10,605912.0
7.01188e-10,596503.0
7.237860000000001e-10,587240.0
7.47109e-10,578126.0
7.71188e-10,569153.0
7.960380000000001e-10,560324.0
8.21693e-10,551633.0
8.48171e-10,543080.0
8.75507e-10,534661.0
9.037190000000002e-10,526376.0
9.32845e-10,518220.0
9.62904e-10,510195.00000000006
9.93937e-10,502294.0
1.0259700000000001e-9,494520.0
1.05903e-9,486867.0
1.09316e-9,479336.0
1.12839e-9,471922.99999999994
1.16475e-9,464628.0
1.2022900000000002e-9,457447.0
1.2410300000000002e-9,450380.0
1.28103e-9,443423.00000000006
1.3223100000000002e-9,436578.0
1.36492e-9,429839.00000000006
1.4089000000000002e-9,423208.0
1.4543100000000001e-9,416680.0
1.5011699999999999e-9,410257.0
1.5495600000000002e-9,403934.0
1.5994900000000002e-9,397711.0
1.6510400000000001e-9,391586.0
1.7042400000000001e-9,385558.0
1.75917e-9,379625.0
1.81585e-9,373786.0
1.87438e-9,368038.0
1.9347700000000003e-9,362382.0
1.99713e-9,356814.0
2.06148e-9,351335.0
2.1279200000000002e-9,345942.0
2.19649e-9,340634.0
2.26728e-9,335410.0
2.3403400000000002e-9,330268.0
2.4157700000000002e-9,325208.0
2.49362e-9,320227.0
2.5739800000000002e-9,315325.0
2.65692e-9,310501.0
2.7425500000000002e-9,305752.0
2.8309300000000003e-9,301079.0
2.92217e-9,296479.0
3.01633e-9,291952.0
3.11354e-9,287496.0
3.21387e-9,283111.0
3.3174500000000004e-9,278794.0
3.42435e-9,274547.0
3.53471e-9,270365.0
3.6486100000000003e-9,266251.0
3.7662000000000005e-9,262200.0
3.88757e-9,258215.0
4.01286e-9,254291.0
4.14217e-9,250430.99999999997
4.2756600000000005e-9,246630.0
4.41344e-9,242890.0
4.55568e-9,239209.0
4.7024800000000005e-9,235587.0
4.85404e-9,232021.0
5.01045e-9,228512.0
5.17193e-9,225057.99999999997
5.338590000000001e-9,221660.0
5.510650000000001e-9,218314.0
5.688220000000001e-9,215022.0
5.871540000000001e-9,211782.0
6.06075e-9,208592.99999999997
6.256080000000001e-9,205453.99999999997
6.4576700000000005e-9,202365.0
6.665790000000001e-9,199325.0
6.8805900000000005e-9,196333.0
7.1023400000000005e-9,193388.0
7.33121e-9,190490.0
7.56748e-9,187638.0
7.81133e-9,184831.0
8.06308e-9,182068.0
8.32291e-9,179349.0
8.59114e-9,176673.0
8.86798e-9,174039.0
9.15378e-9,171447.0
9.44875e-9,168896.0
9.753270000000001e-9,166386.0
1.0067600000000001e-8,163916.0
1.0392e-8,161484.0
1.07269e-8,159092.0
1.10726e-8,156737.0
1.1429400000000001e-8,154420.0
1.17978e-8,152140.0
1.21779e-8,149896.0
1.25704e-8,147687.0
1.29755e-8,145514.0
1.33937e-8,143375.0
1.3825300000000001e-8,141270.0
1.42708e-8,139198.0
1.4730700000000002e-8,137160.0
1.52054e-8,135153.0
1.5728700000000002e-8,133048.0
1.62699e-8,130979.0
1.6829799999999998e-8,128943.99999999999
1.7408900000000002e-8,126945.0
1.8008e-8,124979.0
1.86276e-8,123047.0
1.92686e-8,121147.0
1.9931700000000003e-8,119280.99999999999
2.06176e-8,117446.0
2.1327e-8,115642.0
2.2060900000000003e-8,113869.0
2.28201e-8,112125.99999999999
2.3605299999999998e-8,110413.99999999999
2.44176e-8,108730.0
2.52522e-8,107085.99999999999
2.5299999999999998e-8,106993.99999999999
2.61706e-8,105369.0
2.7071200000000002e-8,103770.99999999999
2.80027e-8,102201.00000000001
2.8966300000000002e-8,100657.0
2.99631e-8,99139.9
3.09942e-8,97648.6
3.20607e-8,96182.9
3.31639e-8,94742.4
3.43052e-8,93326.6
3.54856e-8,91935.2
3.67067e-8,90567.8
3.79699e-8,89223.9
3.9276399999999996e-8,87903.3
4.0628000000000005e-8,86605.5
4.20261e-8,85330.20000000001
4.3472200000000005e-8,84077.0
4.4968199999999994e-8,82845.8
4.65156e-8,81636.0
4.8116199999999996e-8,80447.29999999999
4.9771900000000005e-8,79279.09999999999
5.14847e-8,78131.1
5.325630000000001e-8,77002.9
5.50889e-8,75894.2
5.69846e-8,74804.9
5.8945499999999997e-8,73734.59999999999
6.09739e-8,72683.0
6.30721e-8,71649.90000000001
6.524250000000001e-8,70635.0
6.74875e-8,69638.0
6.980990000000001e-8,68658.5
7.22121e-8,67696.4
7.4697e-8,66751.4
7.726740000000001e-8,65823.09999999999
7.99263e-8,64911.3
8.26766e-8,64015.8
8.552160000000001e-8,63136.299999999996
8.84645e-8,62272.7
9.15087e-8,61424.8
9.465759999999999e-8,60592.3
9.812239999999999e-8,59724.2
1.01714e-7,58872.7
1.0543699999999999e-7,58037.1
1.09295e-7,57217.799999999996
1.13296e-7,56414.1
1.17442e-7,55626.3
1.21741e-7,54853.899999999994
1.26197e-7,54097.0
1.30816e-7,53354.9
1.35603e-7,52627.4
1.40567e-7,51914.100000000006
1.45712e-7,51215.1
1.51045e-7,50530.1
1.56573e-7,49858.9
1.62304e-7,49201.4
1.6824399999999998e-7,48557.3
1.7440199999999998e-7,47926.399999999994
1.80785e-7,47308.6
1.87403e-7,46703.6
1.94261e-7,46111.4
2.01372e-7,45531.6
2.0874199999999998e-7,44964.2
2.1638199999999999e-7,44409.0
2.24777e-7,43834.200000000004
2.3349700000000002e-7,43272.899999999994
2.42043e-7,42755.1
2.51433e-7,42219.8
2.61187e-7,41696.799999999996
2.7131999999999997e-7,41186.2
2.81846e-7,40688.1
2.9278e-7,40202.4
3.04138e-7,39729.1
3.15937e-7,39267.9
3.28194e-7,38818.8
3.4092699999999994e-7,38381.7
3.5415299999999996e-7,37956.5
3.67892e-7,37543.1
3.82165e-7,37141.5
3.97832e-7,36730.200000000004
4.1414e-7,36332.0
4.31118e-7,35946.7
4.4878999999999993e-7,35574.4
4.67189e-7,35215.6
4.863389999999999e-7,34869.8
5.06278e-7,34536.4
5.27031e-7,34216.0
5.48637e-7,33908.8
5.71126e-7,33615.0
5.9454e-7,33334.6
6.189119999999999e-7,33067.799999999996
6.442849999999999e-7,32815.0
6.70695e-7,32576.3
6.98191e-7,32352.0
7.26811e-7,32142.6
7.56607e-7,31948.4
7.87622e-7,31769.9
8.199109999999999e-7,31607.6
8.535209999999999e-7,31462.2
8.885120000000001e-7,31334.399999999998
9.24933e-7,31225.100000000002
9.628519999999999e-7,31135.899999999998
1.00232e-6,31066.1
1.04247e-6,31018.4
1.09484e-6,30991.1
1.1102799999999999e-6,30989.8
1.17181e-6,31014.6
1.2393499999999998e-6,31097.899999999998
1.31997e-6,31262.6
1.4157399999999999e-6,31550.699999999997
1.51847e-6,31973.699999999997
1.6286499999999999e-6,32556.0
1.7468199999999999e-6,33338.299999999996
1.87357e-6,34370.9
1.99554e-6,35573.6
2.12534e-6,37109.5
2.24784e-6,38838.6
2.3608699999999997e-6,40717.0
2.4622099999999998e-6,42670.8
2.54991e-6,44601.7
2.6408599999999997e-6,46875.600000000006
2.73493e-6,49569.1
2.81264e-6,52099.399999999994
2.89257e-6,55037.200000000004
2.9540700000000002e-6,57565.200000000004
3.01673e-6,60414.399999999994
3.08087e-6,63657.2
3.1462199999999998e-6,67350.0
3.2131099999999996e-6,71575.4
3.28127e-6,76466.8
3.32756e-6,80175.5
3.37451e-6,84303.00000000001
3.42212e-6,88904.09999999999
3.4704e-6,94058.6
3.5193599999999995e-6,99860.79999999999
3.56901e-6,106424.99999999999
3.6193599999999998e-6,113892.0
3.65766e-6,120201.0
3.69632e-6,127200.0
3.73534e-6,134994.0
3.7747199999999997e-6,143704.0
3.81466e-6,153518.0
3.85498e-6,164606.0
3.895669999999999e-6,177214.0
3.9230599999999995e-6,186616.0
3.9506299999999995e-6,196929.0
3.97841e-6,208262.0
4.00637e-6,220757.0
4.03453e-6,234593.0
4.06289e-6,249981.0
4.09145e-6,267159.0
4.12021e-6,286415.0
4.1419399999999995e-6,302444.0
4.16366e-6,319920.0
4.18569e-6,339305.0
4.207709999999999e-6,360579.0
4.22985e-6,384110.0
4.25218e-6,410360.0
4.27452e-6,439483.0
4.2970699999999995e-6,472234.0
4.31973e-6,509069.00000000006
4.33483e-6,536130.0
4.35004e-6,565670.0
4.3653500000000005e-6,598004.0
4.38067e-6,633242.0
4.39599e-6,671740.0
4.41141e-6,714218.0
4.42694e-6,761246.0
4.44247e-6,813120.9999999999
4.458009999999999e-6,870536.0000000001
4.47365e-6,934789.9999999999
4.485459999999999e-6,988202.0000000001
4.49727e-6,1.04637e6
4.509089999999999e-6,1.10987e6
4.5209e-6,1.17937e6
4.53277e-6,1.25601e6
4.544749999999999e-6,1.34123e6
4.5567299999999995e-6,1.43544e6
4.56871e-6,1.53994e6
4.580689999999999e-6,1.65627e6
4.59267e-6,1.78625e6
4.6026100000000005e-6,1.90606e6
4.6125499999999996e-6,2.03829e6
4.6224899999999995e-6,2.18468e6
4.63243e-6,2.34729e6
4.64266e-6,2.5341e6
4.6494799999999996e-6,2.67116e6
4.6563e-6,2.81949e6
4.66312e-6,2.98034e6
4.6699299999999995e-6,3.15511e6
4.67675e-6,3.34538e6
4.683569999999999e-6,3.55299e6
4.690389999999999e-6,3.77999e6
4.6972099999999995e-6,4.0287499999999995e6
4.70402e-6,4.30196e6
4.71084e-6,4.6027e6
4.71766e-6,4.93446e6
4.72448e-6,5.30124e6
4.7313e-6,5.70752e6
4.7381099999999994e-6,6.15835e6
4.743229999999999e-6,6.52908e6
4.748339999999999e-6,6.9306e6
4.753449999999999e-6,7.36568e6
4.758569999999999e-6,7.83718e6
4.76368e-6,8.34812e6
4.76879e-6,8.90154e6
4.77493e-6,9.62597e6
4.7810699999999994e-6,1.04209e7
4.7872000000000005e-6,1.12908e7
4.79334e-6,1.2239199999999998e7
4.80016e-6,1.33874e7
4.80698e-6,1.4634799999999998e7
4.81379e-6,1.59776e7
4.82061e-6,1.74066e7
4.83084e-6,1.96778e7
4.85061e-6,2.4203199999999996e7
4.85879e-6,2.59615e7
4.86697e-6,2.75423e7
4.873109999999999e-6,2.85647e7
4.87822e-6,2.92848e7
4.88334e-6,2.98684e7
4.88845e-6,3.03024e7
4.89356e-6,3.05769e7
4.89956e-6,3.06876e7
4.90447e-6,3.0606e7
4.90959e-6,3.03585e7
4.9147e-6,2.9950899999999996e7
4.91981e-6,2.9392999999999996e7
4.92493e-6,2.8697499999999996e7
4.93089e-6,2.7732800000000004e7
4.938559999999999e-6,2.62926e7
4.94623e-6,2.46862e7
4.959019999999999e-6,2.18108e7
4.97265e-6,1.87223e7
4.97947e-6,1.72447e7
4.98629e-6,1.58399e7
4.9931099999999995e-6,1.45214e7
4.99992e-6,1.32972e7
5.006739999999999e-6,1.21705e7
5.01186e-6,1.13894e7
5.016969999999999e-6,1.06619e7
5.02208e-6,9.98596e6
5.027199999999999e-6,9.35932e6
5.03231e-6,8.77926e6
5.03742e-6,8.242940000000001e6
5.04254e-6,7.74741e6
5.04765e-6,7.28971e6
5.05276e-6,6.86698e6
5.05788e-6,6.47645e6
5.0647e-6,6.00132e6
5.0715099999999995e-6,5.57302e6
5.07833e-6,5.18634e6
5.085149999999999e-6,4.83661e6
5.091969999999999e-6,4.51965e6
5.0987899999999995e-6,4.2318e6
5.1056e-6,3.96982e6
5.11242e-6,3.73086e6
5.1192399999999995e-6,3.51242e6
5.12606e-6,3.31231e6
5.13288e-6,3.1286e6
5.139689999999999e-6,2.9596e6
5.14651e-6,2.80383e6
5.15333e-6,2.65996e6
5.16356e-6,2.46398e6
5.17208e-6,2.31672e6
5.18231e-6,2.1568e6
5.192529999999999e-6,2.0129100000000002e6
5.202759999999999e-6,1.883e6
5.212469999999999e-6,1.77106e6
5.22165e-6,1.67414e6
5.2308299999999995e-6,1.58502e6
5.24002e-6,1.5029e6
5.2492e-6,1.42706e6
5.26298e-6,1.32374e6
5.27676e-6,1.23138e6
5.29066e-6,1.14773e6
5.30463e-6,1.07209e6
5.318599999999999e-6,1.0037799999999999e6
5.332569999999999e-6,941898.0
5.34654e-6,885652.0
5.360579999999999e-6,834157.0000000001
5.37475e-6,786692.0
5.388919999999999e-6,743252.0
5.40308e-6,703394.0
5.4219699999999995e-6,655170.0
5.440999999999999e-6,611576.0
5.46015e-6,572050.0
5.47931e-6,536346.0
5.4984699999999996e-6,503986.99999999994
5.51776e-6,474369.99999999994
5.537189999999999e-6,447200.00000000006
5.55661e-6,422387.0
5.57604e-6,399665.0
5.595609999999999e-6,378666.0
5.61531e-6,359229.0
5.63501e-6,341328.0
5.66456e-6,317018.0
5.69453e-6,295058.0
5.7245e-6,275407.0
5.754609999999999e-6,257672.0
5.785e-6,241557.00000000003
5.8153899999999996e-6,227019.0
5.84607e-6,213744.99999999997
5.87689e-6,201637.99999999997
5.907709999999999e-6,190605.0
5.938959999999999e-6,180387.0
5.97022e-6,171040.0
6.01219e-6,159695.0
6.05445e-6,149485.0
6.09701e-6,140266.0
6.13987e-6,131914.0
6.1830299999999995e-6,124326.0
6.22649e-6,117412.0
6.2702600000000005e-6,111096.0
6.314329999999999e-6,105311.0
6.3587199999999995e-6,100000.0
6.403419999999999e-6,95113.90000000001
6.4484299999999995e-6,90608.6
6.51642e-6,84493.3
6.58537e-6,79020.59999999999
6.654969999999999e-6,74127.2
6.72522e-6,69735.0
6.79614e-6,65779.1
6.86805e-6,62194.799999999996
6.94063e-6,58948.799999999996
7.013899999999999e-6,55989.3
7.08786e-6,53291.00000000001
7.1628499999999995e-6,50814.2
7.238559999999999e-6,48546.1
7.340679999999999e-6,45805.99999999999
7.444239999999999e-6,43348.6
7.5492699999999995e-6,41136.7
7.655779999999999e-6,39139.2
7.76379e-6,37329.6
7.87332e-6,35685.4
7.9844e-6,34187.2
8.09704e-6,32818.5
8.268789999999999e-6,30979.5
8.444599999999999e-6,29355.4
8.62373e-6,27920.8
8.80708e-6,26642.199999999997
8.9939e-6,25505.9
9.18512e-6,24480.8
9.37996e-6,23559.399999999998
9.64649e-6,22466.2
9.9206e-6,21505.7
1.0202500000000003e-5,20657.0
1.0566400000000001e-5,19727.399999999998
1.09428e-5,18920.600000000002
1.1333100000000002e-5,18213.600000000002
1.18196e-5,17475.5
1.2326900000000002e-5,16835.7
1.28561e-5,16277.3
1.35018e-5,15708.2
1.428e-5,15144.1
1.5209700000000001e-5,14599.7
1.6313300000000002e-5,14081.2
1.7497000000000002e-5,13631.599999999999
1.9031300000000002e-5,13161.199999999999
2.08452e-5,12715.0
2.31552e-5,12257.0
2.6082800000000004e-5,11786.6
2.9796500000000002e-5,11290.1
3.65071e-5,10517.6
4.2890100000000005e-5,9782.49
4.50151e-5,9533.35
4.5492200000000005e-5,9508.36
4.57785e-5,9537.089999999998
4.5905699999999997e-5,9582.21
4.6032900000000004e-5,9677.56
4.6104500000000006e-5,9776.43
4.61522e-5,9876.83
4.61999e-5,10024.699999999999
4.6239600000000004e-5,10208.2
4.62714e-5,10418.6
4.6295300000000004e-5,10631.699999999999
4.631910000000001e-5,10910.5
4.6335e-5,11143.300000000001
4.6350900000000004e-5,11422.5
4.637e-5,11830.400000000001
4.6389100000000006e-5,12332.6
4.64018e-5,12727.4
4.64171e-5,13271.699999999999
4.64324e-5,13898.900000000001
4.644510000000001e-5,14488.2
4.645780000000001e-5,15139.199999999999
4.64769e-5,16230.0
4.649600000000001e-5,17447.600000000002
4.6521400000000005e-5,19226.9
4.656600000000001e-5,22487.499999999996
4.6585e-5,23791.600000000002
4.66041e-5,24943.2
4.66168e-5,25593.6
4.6629600000000005e-5,26129.600000000002
4.6642300000000006e-5,26536.4
4.6655e-5,26802.7
4.6669900000000005e-5,26926.100000000002
4.66792e-5,26898.399999999998
4.6691900000000006e-5,26730.7
4.6707200000000006e-5,26339.100000000002
4.6719900000000006e-5,25865.5
4.67326e-5,25272.5
4.67517e-5,24195.7
4.67708e-5,22951.100000000002
4.683440000000001e-5,18424.5
4.68535e-5,17163.600000000002
4.68726e-5,16013.0
4.6891600000000003e-5,14989.699999999999
4.69044e-5,14381.5
4.6919600000000004e-5,13729.3
4.69374e-5,13070.900000000001
4.69546e-5,12532.4
4.697110000000001e-5,12093.9
4.69877e-5,11724.2
4.7004200000000006e-5,11413.7
4.7028400000000005e-5,11047.7
4.7052300000000003e-5,10767.3
4.70761e-5,10547.5
4.7107900000000003e-5,10323.0
4.715320000000001e-5,10094.0
4.71938e-5,9946.81
4.72479e-5,9802.45
4.7329e-5,9652.11
4.7438700000000004e-5,9517.92
4.760410000000001e-5,9389.64
4.78458e-5,9272.56
4.832290000000001e-5,9128.539999999999
4.935030000000001e-5,8914.75
5.25604e-5,8342.51
5.367790000000001e-5,8190.08
5.4247600000000006e-5,8151.17
5.4441400000000004e-5,8148.79
5.4825400000000005e-5,8168.2699999999995
5.520950000000001e-5,8233.57
5.5501600000000004e-5,8328.98
5.579360000000001e-5,8482.83
5.598840000000001e-5,8630.98
5.61588e-5,8801.05
5.63293e-5,9021.19
5.6457200000000006e-5,9229.900000000001
5.658500000000001e-5,9487.32
5.67033e-5,9781.53
5.68023e-5,10082.0
5.690120000000001e-5,10447.4
5.6967200000000006e-5,10737.2
5.70332e-5,11074.0
5.709920000000001e-5,11470.1
5.7165200000000006e-5,11942.5
5.7213600000000004e-5,12351.6
5.7259800000000004e-5,12805.4
5.7306e-5,13337.6
5.735210000000001e-5,13971.0
5.73829e-5,14465.300000000001
5.74137e-5,15032.4
5.74445e-5,15690.4
5.74695e-5,16306.6
5.74944e-5,17016.6
5.7519300000000003e-5,17844.6
5.7538000000000004e-5,18562.8
5.755670000000001e-5,19384.5
5.7575400000000004e-5,20333.800000000003
5.7594100000000005e-5,21441.6
5.76066e-5,22287.4
5.7619000000000005e-5,23235.600000000002
5.763150000000001e-5,24303.2
5.7644000000000006e-5,25510.0
5.765500000000001e-5,26709.0
5.7665900000000006e-5,28052.600000000002
5.76769e-5,29561.4
5.768790000000001e-5,31258.3
5.7698900000000004e-5,33169.0
5.770990000000001e-5,35321.6
5.772090000000001e-5,37746.7
5.77319e-5,40477.100000000006
5.77429e-5,43548.0
5.77539e-5,46995.7
5.7761300000000005e-5,49522.00000000001
5.77689e-5,52356.8
5.777650000000001e-5,55415.200000000004
5.778410000000001e-5,58709.5
5.7791800000000005e-5,62251.3
5.77994e-5,66051.7
5.780700000000001e-5,70120.7
5.781850000000001e-5,76747.1
5.78264e-5,81712.90000000001
5.7834600000000004e-5,87196.59999999999
5.784690000000001e-5,96065.1
5.785510000000001e-5,102404.0
5.78668e-5,112040.0
5.7878600000000005e-5,122327.99999999999
5.789030000000001e-5,133216.0
5.790790000000001e-5,150509.0
5.7931400000000006e-5,174814.0
5.796660000000001e-5,211655.00000000003
5.7984200000000006e-5,228986.0
5.8001700000000004e-5,244742.00000000003
5.801350000000001e-5,254057.00000000003
5.802520000000001e-5,262218.0
5.80369e-5,269068.0
5.80498e-5,274931.0
5.80627e-5,278908.0
5.8072900000000004e-5,280650.0
5.8082600000000005e-5,281149.0
5.8092100000000006e-5,280532.0
5.8104400000000006e-5,278120.0
5.8116700000000006e-5,273952.0
5.81284e-5,268443.0
5.814020000000001e-5,261554.00000000003
5.815190000000001e-5,253428.0
5.8169500000000006e-5,239285.0
5.818710000000001e-5,223339.0
5.821060000000001e-5,200372.0
5.8245800000000004e-5,165150.0
5.826340000000001e-5,148300.0
