E(MeV),xs(mb)
1.0e-11,35011.0
1.03223e-11,34468.200000000004
1.06549e-11,33934.3
1.0998399999999998e-11,33408.6
1.13527e-11,32891.6
1.1718599999999999e-11,32382.7
1.2096199999999998e-11,31882.100000000002
1.24861e-11,31389.300000000003
1.2888399999999999e-11,30904.600000000002
1.3303799999999998e-11,30427.5
1.37325e-11,29958.2
1.41751e-11,29496.3
1.4631799999999997e-11,29041.899999999998
1.51034e-11,28594.7
1.5590099999999998e-11,28154.8
1.6092599999999998e-11,27721.9
1.66111e-11,27296.100000000002
1.71465e-11,26877.0
1.7699e-11,26464.699999999997
1.8269399999999998e-11,26059.0
1.88581e-11,25660.0
1.94659e-11,25267.300000000003
2.00931e-11,24881.1
2.0740699999999998e-11,24501.0
2.1408999999999998e-11,24127.100000000002
2.2099099999999997e-11,23759.199999999997
2.28111e-11,23397.399999999998
2.3546399999999998e-11,23041.399999999998
2.4305099999999997e-11,22691.2
2.50884e-11,22346.7
2.5896799999999997e-11,22007.8
2.67315e-11,21674.4
2.75928e-11,21346.5
2.8482199999999998e-11,21023.9
2.93999e-11,20706.600000000002
3.0347499999999995e-11,20394.5
3.13253e-11,20087.5
3.2335e-11,19785.5
3.33769e-11,19488.600000000002
3.44526e-11,19196.4
3.55627e-11,18909.2
3.67089e-11,18626.6
3.7891799999999997e-11,18348.7
3.9113e-11,18075.399999999998
4.0373400000000003e-11,17806.6
4.1674599999999996e-11,17542.3
4.3017399999999996e-11,17282.4
4.440389999999999e-11,17026.8
4.58347e-11,16775.5
4.7311899999999994e-11,16528.3
4.883639999999999e-11,16285.300000000001
5.0410399999999995e-11,16046.3
5.20348e-11,15811.4
5.37119e-11,15580.400000000001
5.54426e-11,15353.300000000001
5.7229499999999995e-11,15129.999999999998
5.907359999999999e-11,14910.5
6.09775e-11,14694.7
6.29424e-11,14482.6
6.497099999999999e-11,14274.1
6.70645e-11,14069.1
6.9226e-11,13867.6
7.145659999999999e-11,13669.6
7.39156e-11,13462.099999999999
7.64591e-11,13258.4
7.90901e-11,13058.4
8.18117e-11,12862.199999999999
8.46269e-11,12669.5
8.753909999999999e-11,12480.4
9.05514e-11,12294.8
9.36674e-11,12112.6
9.689059999999999e-11,11933.9
1.0022500000000001e-10,11758.4
1.03674e-10,11586.300000000001
1.0724100000000002e-10,11417.4
1.1093100000000001e-10,11251.599999999999
1.14749e-10,11089.0
1.1869700000000001e-10,10929.5
1.22782e-10,10773.0
1.27007e-10,10619.400000000001
1.3137700000000002e-10,10468.900000000001
1.3589800000000003e-10,10321.1
1.40575e-10,10176.300000000001
1.45412e-10,10034.199999999999
1.50416e-10,9894.81
1.55592e-10,9758.150000000001
1.60946e-10,9624.15
1.66484e-10,9492.76
1.72213e-10,9363.93
1.78139e-10,9237.619999999999
1.84269e-10,9113.8
1.9061e-10,8992.41
1.97169e-10,8873.42
2.03954e-10,8756.779999999999
2.1142e-10,8635.38
2.1915700000000002e-10,8516.57
2.2717900000000003e-10,8400.25
2.35493e-10,8286.429999999998
2.4411299999999997e-10,8175.0199999999995
2.5304700000000005e-10,8066.000000000001
2.6231e-10,7959.3
2.71909e-10,7854.92
2.81863e-10,7752.76
2.92178e-10,7652.83
3.02873e-10,7555.030000000001
3.13957e-10,7459.38
3.2545000000000005e-10,7365.79
3.3736e-10,7274.25
3.49709e-10,7184.68
3.6327600000000003e-10,7091.99
3.7736900000000005e-10,7001.44
3.92009e-10,6912.99
4.07217e-10,6826.6
4.23015e-10,6742.200000000001
4.39426e-10,6659.7699999999995
4.56473e-10,6579.259999999999
4.74182e-10,6500.62
4.92578e-10,6423.82
5.11688e-10,6348.8
5.32662e-10,6271.51
5.545e-10,6196.11
5.77229e-10,6122.57
6.00894e-10,6050.83
6.255250000000001e-10,5980.86
6.5117e-10,5912.59
6.77861e-10,5846.009999999999
7.056520000000001e-10,5781.04
7.361340000000001e-10,5714.37
7.679330000000001e-10,5649.41
8.011060000000001e-10,5586.11
8.35712e-10,5524.4400000000005
8.718120000000001e-10,5464.33
9.094720000000001e-10,5405.76
9.50765e-10,5345.86
9.93937e-10,5287.54
1.0390600000000001e-9,5230.780000000001
1.08625e-9,5175.51
1.13557e-9,5121.71
1.18713e-9,5069.320000000001
1.24366e-9,5015.91
1.3028800000000002e-9,4963.96
1.36492e-9,4913.43
1.4299200000000002e-9,4864.28
1.5011699999999999e-9,4814.33
1.57599e-9,4765.780000000001
1.65453e-9,4718.61
1.7369900000000002e-9,4672.76
1.8235500000000002e-9,4628.2
1.91848e-9,4583.03
2.01835e-9,4539.17
2.12342e-9,4496.58
2.23397e-9,4455.2300000000005
2.35524e-9,4413.42
2.48309e-9,4372.860000000001
2.6178900000000004e-9,4333.51
2.76585e-9,4293.83
2.92217e-9,4255.38
3.0873200000000005e-9,4218.099999999999
3.2687e-9,4180.61
3.4607600000000004e-9,4144.3
3.66408e-9,4109.14
3.88757e-9,4073.8500000000004
4.12469e-9,4039.7100000000005
4.37627e-9,4006.69
4.65304e-9,3973.6099999999997
4.94728e-9,3941.64
5.26016e-9,3910.7400000000002
5.60466e-9,3879.8599999999997
5.97171e-9,3850.04
6.3762600000000005e-9,3820.3
6.80824e-9,3791.6
7.2848600000000004e-9,3763.04
7.794850000000001e-9,3735.52
8.35818e-9,3708.17
8.96225e-9,3681.85
9.63031e-9,3655.7400000000002
1.03482e-8,3630.63
1.1143000000000001e-8,3605.78
1.2024399999999999e-8,3581.23
1.29755e-8,3557.66
1.40314e-8,3534.41
1.52054e-8,3511.53
1.64776e-8,3489.6
1.78941e-8,3468.04
1.94734e-8,3446.89
2.1237e-8,3426.17
2.31603e-8,3406.38
2.52522e-8,3387.52
2.5299999999999998e-8,3387.12
2.7708300000000002e-8,3368.2
3.041e-8,3349.7599999999998
3.34456e-8,3331.81
3.68623e-8,3314.36
4.07141e-8,3297.4100000000003
4.50634e-8,3280.9900000000002
5.008880000000001e-8,3264.77
5.57923e-8,3249.12
6.22769e-8,3234.03
6.980990000000001e-8,3219.25
7.84198e-8,3205.06
8.84645e-8,3191.22
1.0021899999999999e-7,3177.76
1.13776e-7,3164.92
1.29714e-7,3152.5
1.48825e-7,3140.3500000000004
1.71477e-7,3128.67
1.98413e-7,3117.48
2.3104099999999998e-7,3106.65
2.70175e-7,3096.34
3.18621e-7,3086.32
3.78146e-7,3076.73
4.5164699999999997e-7,3067.61
5.440159999999999e-7,3058.85
6.62239e-7,3050.41
8.130059999999999e-7,3042.3900000000003
1.0065699999999998e-6,3034.79
1.4591099999999998e-6,3023.1400000000003
3.45352e-6,3001.32
1.02283e-5,2976.6400000000003
3.89802e-5,2927.13
0.00010466400000000001,2846.6200000000003
0.00019081300000000002,2766.19
0.000297513,2690.55
0.000429639,2620.5099999999998
0.000595,2556.09
0.0006361040000000001,2544.68
0.0006426470000000001,2550.3900000000003
0.00064429,2560.9500000000003
0.0006451380000000001,2576.33
0.0006456680000000001,2598.5299999999997
0.000645933,2622.44
0.000646099,2652.6200000000003
0.000646198,2684.4
0.000646282,2726.34
0.0006463390000000001,2765.8900000000003
0.000646395,2818.38
0.000646451,2887.95
0.0006464940000000001,2954.44
0.0006465360000000001,3036.06
0.000646578,3135.86
0.00064662,3257.2999999999997
0.000646649,3352.2
0.0006466820000000001,3480.09
0.0006467150000000001,3627.63
0.000646748,3797.17
0.000646781,3991.18
0.000646814,4212.259999999999
0.000646847,4463.04
0.0006468800000000001,4746.22
0.0006469140000000001,5064.47
0.000646947,5420.42
0.00064698,5816.55
0.000647013,6255.17
0.0006470460000000001,6738.3
0.0006470790000000001,7267.67
0.000647112,7844.54
0.000647145,8469.69
0.0006471790000000001,9143.29
0.000647213,9902.29
0.000647248,10712.8
0.0006472940000000001,11869.300000000001
0.0006473410000000001,13104.6
0.000647397,14693.199999999999
0.000647496,17646.5
0.000647596,20609.7
0.000647652,22180.300000000003
0.000647697,23363.5
0.000647746,24530.1
0.000647799,25615.399999999998
0.000647845,26388.699999999997
0.0006478930000000001,26999.5
0.000647937,27364.4
0.00064798,27537.5
0.000648,27557.0
0.0006480400000000001,27474.5
0.000648083,27214.399999999998
0.0006481200000000001,26845.3
0.0006481540000000001,26397.6
0.000648201,25602.2
0.000648254,24514.7
0.00064831,23178.5
0.000648356,21962.899999999998
0.0006484370000000001,19618.2
0.000648586,15161.199999999999
0.000648653,13275.300000000001
0.000648702,11945.5
0.000648749,10764.9
0.000648781,10027.4
0.000648812,9331.720000000001
0.000648844,8679.109999999999
0.000648875,8070.11
0.000648907,7504.7300000000005
0.000648938,6982.490000000001
0.000648971,6490.389999999999
0.000649004,6030.389999999999
0.0006490370000000001,5613.84
0.0006490700000000001,5238.55
0.000649103,4902.110000000001
0.000649136,4601.9800000000005
0.000649169,4335.5
0.0006492020000000001,4100.01
0.000649229,3932.12
0.000649259,3763.2400000000002
0.000649289,3613.73
0.000649318,3481.8199999999997
0.000649358,3330.38
0.000649398,3203.44
0.000649438,3097.57
0.000649477,3009.67
0.0006495170000000001,2936.98
0.00064957,2859.58
0.000649603,2820.5499999999997
0.0006496690000000001,2759.4500000000003
0.000649736,2715.6
0.0006498350000000001,2671.67
0.000649935,2644.1499999999996
0.000650067,2621.5299999999997
0.0006503320000000001,2597.35
0.0006505969999999999,2583.83
0.000651392,2563.29
0.000652982,2548.88
0.0006575400000000001,2539.26
0.0007593750000000001,2508.14
0.00101809,2452.9100000000003
0.00136207,2401.9900000000002
0.00182472,2355.5
0.00190726,2350.23
0.00192885,2354.25
0.00193528,2363.2200000000003
0.00193902,2380.39
0.00194086,2401.35
0.00194207,2427.86
0.00194284,2457.06
0.00194349,2496.28
0.00194388,2532.35
0.0019441299999999999,2566.73
0.0019443600000000002,2610.65
0.00194451,2651.7400000000002
0.0019446600000000002,2709.75
0.00194476,2762.82
0.00194486,2832.6099999999997
0.00194493,2899.66
0.0019450099999999998,2983.05
0.0019450799999999999,3087.04
0.00194513,3170.35
0.00194518,3266.9199999999996
0.00194523,3378.81
0.00194528,3508.33
0.00194533,3658.1
0.0019453800000000002,3831.01
0.00194543,4030.27
0.00194548,4259.490000000001
0.00194552,4453.42
0.00194556,4668.1
0.0019455899999999999,4905.610000000001
0.00194563,5167.76
0.00194567,5456.83
0.0019457,5774.9800000000005
0.00194574,6124.67
0.00194578,6508.2300000000005
0.0019458200000000002,6928.3099999999995
0.00194585,7387.330000000001
0.00194589,7888.58
0.00194593,8434.29
0.00194597,9027.56
0.001946,9671.07
0.00194604,10368.0
0.00194608,11121.0
0.00194611,11933.199999999999
0.00194615,12806.800000000001
0.0019461900000000002,13745.400000000001
0.00194623,14750.9
0.00194625,15459.6
0.0019463,16973.4
0.0019463500000000001,18618.5
0.0019464,20399.600000000002
0.00194645,22319.5
0.0019464999999999999,24381.4
0.00194655,26585.2
0.0019466000000000002,28931.2
0.00194665,31416.8
0.00194671,34784.5
0.00194678,38361.4
0.0019468600000000001,43428.1
0.0019469399999999999,48784.0
0.00194709,58212.0
0.00194728,71634.90000000001
0.00194738,78021.0
0.00194746,82675.90000000001
0.00194754,86938.8
0.00194761,90447.7
0.00194767,93166.3
0.00194775,95720.6
0.00194782,97837.59999999999
0.0019479,99213.29999999999
0.00194797,99799.79999999999
0.001948,99840.9
0.00194808,99442.29999999999
0.00194815,98448.7
0.0019482100000000001,96926.29999999999
0.00194827,95179.4
0.00194834,92497.4
0.00194841,89534.90000000001
0.00194849,85426.3
0.00194856,81245.4
0.00194864,76740.3
0.0019487600000000001,68620.90000000001
0.00194901,51850.2
0.0019491,45893.100000000006
0.00194919,40390.2
0.00194926,36497.700000000004
0.00194932,32831.9
0.00194939,29410.2
0.0019494400000000002,27037.9
0.00194949,24807.800000000003
0.00194954,22719.7
0.00194959,20773.5
0.00194964,18966.4
0.00194969,17296.0
0.0019497400000000002,15757.699999999999
0.0019497800000000001,14688.000000000002
0.0019498200000000001,13623.400000000001
0.0019498599999999999,12604.800000000001
0.0019499,11663.9
0.00194994,10796.1
0.00194998,9998.46
0.0019500200000000002,9266.7
0.00195006,8597.14
0.0019501,7985.79
0.00195014,7429.070000000001
0.00195019,6923.110000000001
0.0019502299999999998,6464.509999999999
0.00195026,6085.3
0.0019502999999999999,5739.82
0.00195034,5425.43
0.00195038,5139.89
0.00195041,4880.860000000001
0.00195045,4646.3
0.00195049,4434.17
0.00195052,4242.69
0.00195057,4016.2599999999998
0.0019506200000000001,3819.4300000000003
0.00195067,3648.59
0.00195072,3500.63
0.0019507699999999999,3372.63
0.00195082,3262.06
0.0019508700000000002,3166.5899999999997
0.00195095,3047.37
0.00195102,2951.82
0.0019511,2875.07
0.0019511700000000001,2813.26
0.0019512700000000002,2748.71
0.00195137,2699.3999999999996
0.00195152,2645.1
0.0019517199999999999,2595.67
0.00195194,2557.62
0.00195231,2514.78
0.00195281,2477.16
0.0019535800000000003,2440.56
0.00195434,2417.6099999999997
0.00195579,2392.16
0.00195748,2376.43
0.00196072,2362.0800000000004
0.00196743,2351.67
0.00198881,2345.11
0.00199549,2349.27
0.00199644,2355.41
0.00199681,2365.4500000000003
0.001997,2377.86
0.0019971900000000002,2401.0099999999998
0.0019973300000000003,2430.25
0.0019974700000000003,2475.2999999999997
0.0019976,2534.19
0.0019977000000000003,2593.82
0.00199779,2670.06
0.00199789,2766.31
0.00199795,2843.4
0.00199802,2932.15
0.00199808,3033.68
0.00199815,3168.25
0.00199823,3322.99
0.0019983,3499.45
0.00199837,3698.87
0.00199845,3922.29
0.00199852,4170.27
0.00199859,4442.95
0.00199867,4739.82
0.00199877,5171.490000000001
0.0019988600000000003,5639.83
0.00199898,6240.7300000000005
0.00199929,7918.280000000001
0.00199943,8614.75
0.0019995300000000002,9040.41
0.00199963,9417.529999999999
0.00199971,9690.46
0.0019998100000000003,9911.54
0.00199989,10032.7
0.0019999700000000002,10094.5
0.002,10098.5
0.0020000900000000004,10058.199999999999
0.00200017,9946.01
0.00200025,9787.17
0.00200033,9561.41
0.00200042,9234.220000000001
0.0020005,8889.99
0.00200061,8410.99
0.00200075,7656.3
0.0020010400000000004,6122.18
0.00200117,5493.08
0.0020012500000000004,5101.84
0.00200133,4737.78
0.00200141,4441.12
0.00200148,4168.74
0.00200155,3921.0099999999998
0.00200163,3697.8399999999997
0.0020017,3498.58
0.00200177,3322.29
0.0020018500000000003,3167.6600000000003
0.0020019200000000003,3033.2200000000003
0.0020019900000000004,2917.26
0.00200207,2818.1099999999997
0.00200212,2760.4700000000003
0.00200221,2671.9
0.00200229,2600.45
0.0020023800000000002,2543.4100000000003
0.00200247,2498.36
0.0020026,2448.57
0.0020027300000000003,2414.81
0.00200291,2386.56
0.00200318,2365.36
0.0020035400000000003,2354.81
0.00200517,2346.5
0.00202293,2340.71
0.002719,2298.29
0.00404092,2243.5
0.0045356,2228.22
0.00461306,2233.18
0.0046416899999999995,2244.84
0.004656850000000001,2262.34
0.00466611,2285.32
0.00467242,2314.25
0.00467664,2345.9
0.00468011,2385.8199999999997
0.00468284,2432.33
0.00468474,2477.1200000000003
0.004686320000000001,2526.26
0.0046879,2591.02
0.00468895,2646.37
0.004690000000000001,2715.17
0.0046910499999999996,2802.18
0.00469184,2883.56
0.004692630000000001,2983.4700000000003
0.00469316,3063.37
0.00469369,3156.7400000000002
0.00469421,3266.87
0.00469474,3398.1400000000003
0.00469513,3513.98
0.00469553,3648.34
0.00469592,3805.59
0.00469632,3991.53
0.00469658,4135.22
0.00469684,4298.21
0.004697160000000001,4524.92
0.00469737,4699.09
0.004697580000000001,4895.79
0.00469779,5119.66
0.004698000000000001,5376.7699999999995
0.00469816,5596.129999999999
0.00469832,5842.990000000001
0.004698470000000001,6122.8
0.004698610000000001,6386.03
0.00469876,6745.29
0.00469888,7051.62
0.004699,7395.400000000001
0.00469912,7783.0
0.0046992399999999995,8221.79
0.0046993600000000005,8720.55
0.00469947,9289.34
0.00469955,9713.29
0.00469963,10177.5
0.004699709999999999,10686.199999999999
0.00469982,11442.1
0.004699900000000001,12073.9
0.00469997,12767.5
0.00470005,13528.9
0.004700129999999999,14364.699999999999
0.004700210000000001,15281.6
0.00470029,16287.400000000001
0.004700370000000001,17389.2
0.00470045,18595.3
0.00470053,19913.9
0.00470061,21353.6
0.0047006800000000005,22814.100000000002
0.00470075,24336.2
0.0047008200000000005,25976.0
0.00470089,27740.5
0.0047009600000000006,29634.999999999996
0.00470101,30973.1
0.00470111,33838.0
0.0047012,36963.3
0.00470129,40359.99999999999
0.00470139,44035.700000000004
0.0047015,48599.2
0.004701609999999999,53539.899999999994
0.00470172,58855.700000000004
0.00470182,64536.2
0.00470193,70564.40000000001
0.00470208,79310.8
0.004702250000000001,89832.0
0.0047025,106410.0
0.00470282,127558.0
0.0047030200000000005,140095.0
0.0047032,149989.0
0.00470336,157735.0
0.00470351,163771.0
0.00470361,166994.0
0.00470372,169565.0
0.00470382,171400.0
0.00470394,172465.0
0.004704,172616.0
0.00470413,171987.0
0.00470423,170562.0
0.00470434,168342.0
0.00470444,165461.0
0.00470459,159892.0
0.004704740000000001,152985.0
0.00470486,146823.0
0.004705040000000001,136033.0
0.00470525,123187.0
0.00470569,93469.20000000001
0.00470586,82777.5
0.00470603,72676.2
0.00470614,66540.6
0.0047062499999999995,60745.1
0.004706360000000001,55309.100000000006
0.004706470000000001,50245.6
0.00470657,45558.8
0.0047066600000000005,42207.7
0.004706750000000001,38673.3
0.00470685,35414.4
0.004706940000000001,32421.4
0.00470701,30344.4
0.004707080000000001,28405.300000000003
0.00470715,26598.199999999997
0.00470723,24917.5
0.0047073,23356.6
0.00470737,21909.7
0.00470745,20427.1
0.004707530000000001,19068.5
0.00470761,17825.2
0.00470768,16688.8
0.00470776,15651.2
0.0047078400000000005,14704.699999999999
0.00470792,13841.699999999999
0.004708,13055.5
0.00470808,12339.1
0.00470816,11686.6
0.00470825,10998.1
0.00470833,10464.4
0.00470841,9977.57
0.00470849,9533.18
0.004708599999999999,8937.2
0.00470872,8415.11
0.004708840000000001,7956.29
0.004708960000000001,7551.41
0.00470908,7192.77
0.0047092,6873.65
0.00470932,6588.41
0.0047094699999999995,6252.65
0.00470963,5959.37
0.00470979,5701.25
0.0047098899999999996,5545.740000000001
0.0047101,5268.08
0.00471031,5027.47
0.00471053,4816.94
0.004710740000000001,4631.179999999999
0.00471095,4466.1
0.00471116,4318.49
0.004711420000000001,4154.67
0.00471168,4010.21
0.0047120800000000004,3823.2400000000002
0.00471247,3665.06
0.00471287,3529.8500000000004
0.00471326,3413.26
0.004713790000000001,3281.06
0.00471431,3170.1000000000004
0.00471484,3075.98
0.00471563,2959.38
0.004716420000000001,2865.36
0.0047172099999999995,2788.35
0.004718,2724.44
0.004719050000000001,2654.83
0.0047201000000000005,2598.77
0.00472168,2533.08
0.00472326,2483.1400000000003
0.00472516,2437.54
0.00472789,2390.04
0.00473137,2349.0899999999997
0.00473558,2316.43
0.0047418899999999995,2286.2599999999998
0.00475115,2261.83
0.00476631,2242.45
0.00479683,2227.36
0.0048916,2214.95
0.0059965,2159.47
0.00646817,2122.7299999999996
0.00678417,2084.53
0.00699708,2045.5800000000002
0.00715306,2004.1299999999999
0.00727082,1959.8899999999999
0.0073566000000000005,1916.0
0.00742679,1868.51
0.00748294,1819.1299999999999
0.00752662,1770.68
0.00756405,1719.19
0.0075952500000000004,1666.66
0.0076202,1616.28
0.00764516,1556.1100000000001
0.007663870000000001,1502.7299999999998
0.00768259,1440.29
0.00769507,1392.45
0.0077075500000000005,1338.59
0.00772002,1277.49
0.0077325,1207.5800000000002
0.00774186,1148.27
0.0077512200000000005,1081.95
0.00776058,1007.42
0.00776682,952.4649999999999
0.00777306,892.735
0.0077793,827.691
0.00778553,756.763
0.0077902100000000005,699.378
0.00779489,638.218
0.0077995700000000005,572.9549999999999
0.0078042499999999996,503.613
0.007808150000000001,442.809
0.00781283,366.623
0.00781897,263.103
0.00782287,197.44299999999998
0.00782521,159.26
0.00782675,135.168
0.00782806,115.39999999999999
0.00782916,99.73689999999999
0.00783009,87.1347
0.00783091,76.6572
0.00783157,68.7718
0.00783207,63.180899999999994
0.007832490000000001,58.6567
0.007833,53.4686
0.00783351,48.660500000000006
0.00783389,45.3232
0.007834279999999999,42.2329
0.00783467,39.3278
0.00783497,37.342
0.00783526,35.530300000000004
0.00783556,33.9012
0.00783586,32.4634
0.00783619,31.087500000000002
0.00783641,30.3174
0.00783663,29.67
0.007836890000000001,29.081000000000003
0.00783711,28.718400000000003
0.00783732,28.487399999999997
0.00783758,28.3902
0.0078378,28.464299999999998
0.007838020000000001,28.6909
0.00783826,29.111600000000003
0.00783852,29.7735
0.00783873,30.4982
0.00783894,31.386
0.0078392,32.6744
0.0078394,33.8868
0.00783961,35.2662
0.00783984,37.0443
0.00784003,38.6898
0.00784023,40.4984
0.00784042,42.475300000000004
0.00784064,44.9821
0.007840900000000001,48.1245
0.00784115,51.5911
0.0078414,55.3952
0.00784162,58.888
0.00784188,63.5313
0.00784214,68.5839
0.007842410000000001,74.0632
0.00784267,79.9878
0.00784293,86.3767
0.0078432,93.2513
0.00784346,100.632
0.00784372,108.53999999999999
0.00784399,117.001
0.00784425,126.037
0.00784455,137.155
0.00784487,149.908
0.0078452,163.657
0.00784552,178.458
0.00784584,194.368
0.00784617,211.98600000000002
0.007846520000000001,232.076
0.00784687,253.73299999999998
0.00784722,277.05199999999996
0.00784757,302.141
0.00784792,329.108
