E(MeV),xs(mb)
1.0e-11,425493.0
1.03223e-11,418804.0
1.06549e-11,412222.00000000006
1.0998399999999998e-11,405741.99999999994
1.13527e-11,399366.0
1.1718599999999999e-11,393088.0
1.2096199999999998e-11,386911.0
1.24861e-11,380830.0
1.2888399999999999e-11,374846.0
1.3303799999999998e-11,368954.0
1.37325e-11,363158.0
1.41751e-11,357450.0
1.4631799999999997e-11,351835.0
1.51034e-11,346306.0
1.5590099999999998e-11,340866.0
1.6092599999999998e-11,335510.0
1.66111e-11,330240.0
1.71465e-11,325051.0
1.7699e-11,319946.0
1.8269399999999998e-11,314920.0
1.88581e-11,309974.0
1.94659e-11,305105.0
2.00931e-11,300314.0
2.0740699999999998e-11,295598.0
2.1408999999999998e-11,290956.0
2.2099099999999997e-11,286387.0
2.28111e-11,281891.0
2.3546399999999998e-11,277465.0
2.4305099999999997e-11,273110.0
2.50884e-11,268822.0
2.5896799999999997e-11,264603.0
2.67315e-11,260449.00000000003
2.75928e-11,256361.99999999997
2.8482199999999998e-11,252339.0
2.93999e-11,248379.0
3.0347499999999995e-11,244482.0
3.13253e-11,240647.0
3.2335e-11,236871.0
3.33769e-11,233156.0
3.44526e-11,229497.99999999997
3.55627e-11,225898.99999999997
3.67089e-11,222356.0
3.7891799999999997e-11,218870.0
3.9113e-11,215438.00000000003
4.0373400000000003e-11,212061.0
4.1674599999999996e-11,208737.0
4.3017399999999996e-11,205466.00000000003
4.440389999999999e-11,202245.0
4.58347e-11,199077.0
4.7311899999999994e-11,195957.0
4.883639999999999e-11,192888.0
5.0410399999999995e-11,189866.0
5.20348e-11,186893.0
5.37119e-11,183966.0
5.54426e-11,181086.0
5.7229499999999995e-11,178251.0
5.907359999999999e-11,175462.0
6.09775e-11,172716.0
6.29424e-11,170013.0
6.497099999999999e-11,167353.0
6.70645e-11,164736.0
6.9226e-11,162159.0
7.145659999999999e-11,159624.0
7.37596e-11,157129.0
7.61364e-11,154673.0
7.85902e-11,152256.0
8.11227e-11,149877.0
8.37372e-11,147536.0
8.643549999999999e-11,145232.0
8.922119999999998e-11,142964.0
9.209619999999999e-11,140733.0
9.506439999999999e-11,138536.0
9.81277e-11,136375.0
1.01291e-10,134247.0
1.04554e-10,132154.0
1.07924e-10,130092.99999999999
1.11402e-10,128065.99999999999
1.1499200000000001e-10,126070.0
1.1869700000000001e-10,124106.0
1.22523e-10,122173.0
1.26471e-10,120271.0
1.30547e-10,118399.00000000001
1.34754e-10,116557.0
1.3909700000000002e-10,114744.0
1.43579e-10,112960.0
1.48207e-10,111203.99999999999
1.52982e-10,109476.0
1.57913e-10,107775.0
1.6300100000000001e-10,106102.00000000001
1.68254e-10,104454.0
1.73676e-10,102834.0
1.79274e-10,101238.99999999999
1.8505000000000002e-10,99669.2
1.91014e-10,98124.2
1.97169e-10,96604.2
2.03524e-10,95108.0
2.1008200000000003e-10,93636.0
2.16853e-10,92187.0
2.2384e-10,90761.40000000001
2.31055e-10,89358.2
2.385e-10,87977.6
2.46187e-10,86618.7
2.5412e-10,85281.8
2.6231e-10,83965.70000000001
2.70762e-10,82670.99999999999
2.7948900000000003e-10,81396.59999999999
2.88494e-10,80142.79999999999
2.9779300000000004e-10,78908.6
3.07388e-10,77694.5
3.1729500000000004e-10,76499.3
3.27519e-10,75323.5
3.38075e-10,74166.1
3.4896900000000003e-10,73027.5
3.6021600000000004e-10,71906.8
3.7182300000000004e-10,70804.09999999999
3.83807e-10,69718.8
3.96174e-10,68651.0
4.08943e-10,67600.1
4.2212e-10,66566.0
4.3572499999999996e-10,65548.3
4.4976500000000005e-10,64547.0
4.6426100000000007e-10,63561.50000000001
4.79221e-10,62591.799999999996
4.94666e-10,61637.399999999994
5.10605e-10,60698.5
5.270620000000001e-10,59774.3
5.440450000000001e-10,58865.0
5.6158e-10,57970.0
5.796750000000001e-10,57089.5
5.98358e-10,56222.8
6.176389999999999e-10,55370.2
6.37545e-10,54530.9
6.58089e-10,53705.2
6.79298e-10,52892.4
7.01188e-10,52092.799999999996
7.237860000000001e-10,51305.8
7.47109e-10,50531.4
7.71188e-10,49769.2
7.960380000000001e-10,49019.3
8.21693e-10,48281.200000000004
8.48171e-10,47554.99999999999
8.75507e-10,46840.200000000004
9.037190000000002e-10,46136.9
9.32845e-10,45444.7
9.62904e-10,44763.6
9.93937e-10,44093.299999999996
1.0259700000000001e-9,43433.700000000004
1.05903e-9,42784.4
1.09316e-9,42145.700000000004
1.12839e-9,41516.9
1.16475e-9,40898.3
1.2022900000000002e-9,40289.4
1.2410300000000002e-9,39690.3
1.28103e-9,39100.6
1.3223100000000002e-9,38520.3
1.36492e-9,37949.2
1.4089000000000002e-9,37387.2
1.4543100000000001e-9,36834.1
1.5011699999999999e-9,36289.799999999996
1.5495600000000002e-9,35754.1
1.5994900000000002e-9,35227.0
1.6510400000000001e-9,34708.2
1.7042400000000001e-9,34197.700000000004
1.75917e-9,33695.2
1.81585e-9,33200.7
1.87438e-9,32714.0
1.9347700000000003e-9,32235.100000000002
2.00135e-9,31732.6
2.07022e-9,31238.600000000002
2.14146e-9,30753.0
2.21515e-9,30275.500000000004
2.2913800000000004e-9,29806.1
2.37023e-9,29344.7
2.45179e-9,28891.0
2.5361600000000005e-9,28445.0
2.62343e-9,28006.600000000002
2.7137e-9,27575.5
2.80709e-9,27151.7
2.90368e-9,26735.1
3.0036000000000003e-9,26325.5
3.10696e-9,25922.800000000003
3.21387e-9,25526.9
3.3244600000000003e-9,25137.6
3.4388600000000003e-9,24754.999999999996
3.5572e-9,24378.8
3.67961e-9,24008.9
3.80623e-9,23645.3
3.9372e-9,23287.8
4.07269e-9,22936.3
4.212830000000001e-9,22590.8
4.3578e-9,22251.1
4.50776e-9,21917.100000000002
4.66287e-9,21588.699999999997
4.8233300000000005e-9,21265.9
4.98931e-9,20948.5
5.16099e-9,20636.5
5.338590000000001e-9,20329.7
5.522300000000001e-9,20028.100000000002
5.71233e-9,19731.5
5.908890000000001e-9,19440.0
6.112230000000001e-9,19153.3
6.32255e-9,18871.5
6.54012e-9,18594.4
6.765170000000001e-9,18322.0
6.99797e-9,18054.2
7.2387800000000005e-9,17790.9
7.48788e-9,17532.0
7.745540000000001e-9,17277.4
8.01208e-9,17027.1
8.28778e-9,16781.1
8.57297e-9,16539.1
8.86798e-9,16301.300000000001
9.17314e-9,16067.400000000001
9.4888e-9,15837.5
9.81532e-9,15611.4
1.0153099999999999e-8,15389.2
1.05025e-8,15170.699999999999
1.08639e-8,14955.8
1.12377e-8,14744.6
1.1624399999999999e-8,14536.9
1.2024399999999999e-8,14332.7
1.24382e-8,14132.0
1.2866200000000002e-8,13934.599999999999
1.33089e-8,13740.5
1.37961e-8,13537.8
1.4301e-8,13338.8
1.4824500000000001e-8,13143.3
1.5367e-8,12951.2
1.59295e-8,12762.6
1.65125e-8,12577.400000000001
1.7116899999999998e-8,12395.400000000001
1.77433e-8,12216.7
1.83928e-8,12041.2
1.9066e-8,11868.8
1.97638e-8,11699.4
2.04871e-8,11533.1
2.1237e-8,11369.800000000001
2.2014300000000004e-8,11209.3
2.28201e-8,11051.7
2.3655300000000002e-8,10896.999999999998
2.4521099999999997e-8,10744.9
2.52522e-8,10622.7
2.5299999999999998e-8,10614.9
2.6226099999999998e-8,10467.800000000001
2.71859e-8,10323.4
2.8181e-8,10181.6
2.9212400000000002e-8,10042.199999999999
3.0281600000000004e-8,9905.34
3.13899e-8,9770.9
3.2538900000000006e-8,9638.820000000002
3.37297e-8,9509.11
3.4964300000000004e-8,9381.679999999998
3.6244000000000003e-8,9256.52
3.7570600000000004e-8,9133.58
3.89456e-8,9012.83
4.03712e-8,8894.220000000001
4.19374e-8,8770.93
4.3564299999999995e-8,8649.960000000001
4.52544e-8,8531.26
4.70101e-8,8414.77
4.88338e-8,8300.44
5.07283e-8,8188.25
5.26963e-8,8078.13
5.4740700000000004e-8,7970.07
5.68644e-8,7864.03
5.907040000000001e-8,7759.97
6.136210000000001e-8,7657.84
6.37426e-8,7557.629999999999
6.62155e-8,7459.28
6.87843e-8,7362.759999999999
7.14528e-8,7268.04
7.422480000000001e-8,7175.08
7.710440000000001e-8,7083.86
8.009560000000001e-8,6994.33
8.32029e-8,6906.4800000000005
8.66136e-8,6815.54
9.01644e-8,6726.38
9.38604e-8,6638.96
9.770830000000001e-8,6553.219999999999
1.01714e-7,6469.14
1.0588299999999998e-7,6386.69
1.1022400000000001e-7,6305.85
1.1474200000000001e-7,6226.57
1.19446e-7,6148.84
1.24343e-7,6072.62
1.2944e-7,5997.88
1.34746e-7,5924.58
1.4027e-7,5852.71
1.4601999999999998e-7,5782.2300000000005
1.5232799999999999e-7,5709.5
1.58908e-7,5638.25
1.6577299999999998e-7,5568.450000000001
1.72934e-7,5500.07
1.80404e-7,5433.09
1.8819699999999997e-7,5367.47
1.9632599999999998e-7,5303.15
2.04807e-7,5240.1
2.13654e-7,5178.3
2.2288399999999997e-7,5117.75
2.3251199999999998e-7,5058.4
2.43069e-7,4997.36
2.54106e-7,4937.59
2.6564299999999997e-7,4879.07
2.77705e-7,4821.76
2.90314e-7,4765.65
3.0349699999999995e-7,4710.68
3.17276e-7,4656.86
3.31683e-7,4604.14
3.4674299999999997e-7,4552.51
3.62488e-7,4501.96
3.7974899999999997e-7,4450.12
3.97832e-7,4399.339999999999
4.16776e-7,4349.62
4.36622e-7,4300.96
4.5741399999999997e-7,4253.3099999999995
4.79195e-7,4206.67
5.02013e-7,4161.0
5.27031e-7,4114.27
5.53297e-7,4068.55
5.808699999999999e-7,4023.81
6.09819e-7,3980.03
6.40209e-7,3937.1800000000003
6.72116e-7,3895.24
7.056099999999999e-7,3854.19
7.40777e-7,3814.01
7.793399999999999e-7,3773.01
8.199109999999999e-7,3732.85
8.625949999999999e-7,3693.55
9.074999999999999e-7,3655.08
9.54743e-7,3617.4300000000003
1.0065699999999998e-6,3579.06
1.0645899999999999e-6,3539.29
1.1418299999999998e-6,3490.96
1.2419599999999999e-6,3434.61
1.37959e-6,3366.8
1.56498e-6,3289.27
1.8129399999999999e-6,3203.11
2.1904499999999995e-6,3099.53
2.6280199999999998e-6,3005.2400000000002
3.1750899999999996e-6,2913.1200000000003
3.89035e-6,2819.6
4.76651e-6,2729.79
5.881179999999999e-6,2639.0600000000004
7.307719999999999e-6,2545.63
9.207929999999999e-6,2441.8799999999997
1.2185600000000002e-5,2303.3700000000003
1.7787900000000003e-5,2070.35
2.57851e-5,1750.87
2.8641100000000003e-5,1647.1
3.05056e-5,1590.6499999999999
3.18151e-5,1561.37
3.27191e-5,1549.21
3.34131e-5,1545.34
3.41768e-5,1549.52
3.4901700000000005e-5,1563.55
3.539410000000001e-5,1580.3
3.5893500000000005e-5,1604.71
3.6399900000000004e-5,1638.85
3.6785e-5,1672.45
3.71738e-5,1714.26
3.75662e-5,1766.18
3.79623e-5,1830.75
3.8364e-5,1911.14
3.86337e-5,1975.17
3.89053e-5,2049.28
3.9178700000000005e-5,2135.2000000000003
3.94541e-5,2234.9
3.9728300000000004e-5,2349.88
3.9933000000000005e-5,2447.61
4.013770000000001e-5,2556.9500000000003
4.038800000000001e-5,2708.91
4.05695e-5,2833.65
4.076570000000001e-5,2984.36
4.0974300000000005e-5,3165.27
4.11681e-5,3355.66
4.13349e-5,3539.4100000000003
4.14821e-5,3719.0099999999998
4.16292e-5,3917.2
4.1774e-5,4132.63
4.19138e-5,4362.69
4.20536e-5,4617.21
4.21984e-5,4910.1
4.23456e-5,5243.2699999999995
4.249270000000001e-5,5617.69
4.26399e-5,6040.2
4.27381e-5,6352.62
4.28362e-5,6692.96
4.29343e-5,7064.59
4.30324e-5,7471.339999999999
4.3130600000000003e-5,7917.6900000000005
4.32287e-5,8408.84
4.33268e-5,8950.88
4.34249e-5,9550.98
4.3523100000000003e-5,10217.6
4.36212e-5,10960.8
4.369480000000001e-5,11575.7
4.37684e-5,12246.300000000001
4.3842000000000005e-5,12979.6
4.3915600000000004e-5,13783.6
4.398920000000001e-5,14667.6
4.40628e-5,15642.5
4.4136300000000006e-5,16721.2
4.42099e-5,17918.8
4.4283500000000004e-5,19253.5
4.435710000000001e-5,20746.899999999998
4.44062e-5,21843.499999999996
4.445520000000001e-5,23031.199999999997
4.45215e-5,24797.8
4.45656e-5,26093.199999999997
4.460980000000001e-5,27494.6
4.4654e-5,29014.000000000004
4.4698100000000005e-5,30665.100000000002
4.474230000000001e-5,32463.5
4.478640000000001e-5,34427.4
4.48257e-5,36329.0
4.4877200000000005e-5,39077.1
4.49287e-5,42153.799999999996
4.4963e-5,44414.100000000006
4.4997400000000004e-5,46863.700000000004
4.5031700000000005e-5,49524.7
4.5066100000000005e-5,52422.3
4.50985e-5,55397.299999999996
4.51289e-5,58432.8
4.5159300000000007e-5,61729.0
4.5189700000000005e-5,65317.299999999996
4.5220100000000004e-5,69233.59999999999
4.5250600000000003e-5,73519.9
4.528100000000001e-5,78225.0
4.53114e-5,83406.5
4.53384e-5,88456.3
4.536190000000001e-5,93256.8
4.53855e-5,98469.20000000001
4.5409e-5,104143.00000000001
4.54326e-5,110337.0
4.54561e-5,117118.00000000001
4.5479700000000004e-5,124566.0
4.550320000000001e-5,132776.0
4.55248e-5,141065.0
4.55444e-5,149323.0
4.55641e-5,158364.0
4.55837e-5,168295.0
4.560330000000001e-5,179244.0
4.562290000000001e-5,191367.0
4.56426e-5,204847.0
4.565730000000001e-5,215984.0
4.5672e-5,228124.0
4.56877e-5,242332.0
4.57034e-5,258024.0
4.57191e-5,275427.0
4.57348e-5,294810.0
4.57466e-5,310839.0
4.5758400000000006e-5,328320.0
4.57701e-5,347431.0
4.57819e-5,368379.0
4.57937e-5,391394.0
4.5804000000000004e-5,413435.00000000006
4.5816700000000005e-5,443492.0
4.5826300000000005e-5,468280.00000000006
4.5835900000000006e-5,495207.99999999994
4.58454e-5,524491.0
4.5855e-5,556362.0
4.58646e-5,591074.0
4.587410000000001e-5,628895.0
4.588370000000001e-5,670118.0
4.589330000000001e-5,715048.0
4.5903700000000006e-5,768482.0
4.59117e-5,813364.9999999999
4.591980000000001e-5,861571.0
4.5927800000000004e-5,913315.0
4.59359e-5,968816.0
4.59439e-5,1.0282899999999999e6
4.5952e-5,1.09197e6
4.596000000000001e-5,1.16005e6
4.596910000000001e-5,1.24287e6
4.59793e-5,1.34289e6
4.5989500000000004e-5,1.45108e6
4.59997e-5,1.56777e6
4.6008800000000006e-5,1.6783e6
4.6020500000000004e-5,1.83302e6
4.60323e-5,1.99984e6
4.60441e-5,2.17873e6
4.605590000000001e-5,2.36948e6
4.607160000000001e-5,2.64145e6
4.608730000000001e-5,2.93185e6
4.6106900000000004e-5,3.31656e6
4.6138300000000005e-5,3.96387e6
4.6169700000000006e-5,4.61278e6
4.6193200000000004e-5,5.06923e6
4.6208900000000004e-5,5.34583e6
4.6224600000000005e-5,5.59205e6
4.6240300000000005e-5,5.80132e6
4.6256000000000006e-5,5.96785e6
4.626900000000001e-5,6.06967e6
4.628120000000001e-5,6.13405e6
4.629400000000001e-5,6.16792e6
4.6299500000000006e-5,6.17146e6
4.6314100000000004e-5,6.14908e6
4.632590000000001e-5,6.09776e6
4.634000000000001e-5,5.99827e6
4.63502e-5,5.90194e6
4.63659e-5,5.71673e6
4.63816e-5,5.49136e6
4.6397300000000004e-5,5.23201e6
4.6413000000000004e-5,4.94546e6
4.64366e-5,4.48019e6
4.6483700000000004e-5,3.50688e6
4.6503300000000006e-5,3.11496e6
4.6519000000000006e-5,2.81639e6
4.653470000000001e-5,2.53467e6
4.6546500000000006e-5,2.33584e6
4.6558300000000004e-5,2.14844e6
4.657e-5,1.97287e6
4.65818e-5,1.80927e6
4.659360000000001e-5,1.65763e6
4.6601400000000004e-5,1.56308e6
4.66132e-5,1.43082e6
4.6625e-5,1.30966e6
4.663380000000001e-5,1.22576e6
4.6642700000000007e-5,1.14755e6
4.66533e-5,1.06086e6
4.66627e-5,989974.0
4.66721e-5,924551.0
4.6681500000000004e-5,864240.0
4.6690900000000004e-5,808696.0
4.6700400000000004e-5,757583.0
4.6709800000000005e-5,710572.0
4.6719200000000005e-5,667349.0
4.67308e-5,618968.0
4.67411e-5,579920.0
4.67514e-5,544283.0
4.67617e-5,511738.0
4.6772000000000006e-5,481989.0
4.678230000000001e-5,454765.99999999994
4.67926e-5,429824.0
4.6802900000000006e-5,406935.99999999994
4.681320000000001e-5,385902.0
4.6826900000000004e-5,360425.0
4.68417e-5,335991.0
4.68495e-5,324031.0
4.68652e-5,302087.0
4.68809e-5,282461.0
4.68966e-5,264833.0
4.69123e-5,248932.00000000003
4.6928e-5,234530.0
4.69437e-5,221435.0
4.69594e-5,209486.00000000003
4.6979e-5,195953.0
4.699860000000001e-5,183775.0
4.7018300000000003e-5,172765.0
4.70379e-5,162772.0
4.705750000000001e-5,153669.0
4.70771e-5,145347.0
4.70968e-5,137716.0
4.71164e-5,130699.00000000001
4.714190000000001e-5,122386.0
4.71674e-5,114875.0
4.719290000000001e-5,108061.99999999999
4.721840000000001e-5,101862.00000000001
4.7244000000000004e-5,96200.4
4.7269500000000005e-5,91015.8
4.7295e-5,86254.8
4.73205e-5,81871.4
4.73548e-5,76498.1
4.7389200000000004e-5,71655.5
4.7423500000000004e-5,67275.09999999999
4.7457900000000005e-5,63299.0
4.7492200000000006e-5,59678.2
4.75266e-5,56371.1
4.756090000000001e-5,53342.1
4.759520000000001e-5,50560.4
4.76345e-5,47650.6
4.7673800000000004e-5,44995.6
4.7713e-5,42566.2
4.77523e-5,40337.7
4.77915e-5,38288.4
4.783070000000001e-5,36399.5
4.788960000000001e-5,33831.799999999996
4.7933800000000005e-5,32090.6
4.7982800000000004e-5,30318.9
4.8031900000000003e-5,28699.7
4.8081e-5,27216.2
4.813e-5,25853.600000000002
4.817910000000001e-5,24599.4
4.82527e-5,22897.3
4.8326300000000005e-5,21382.6
4.8399900000000004e-5,20029.4
4.84735e-5,18816.1
4.85471e-5,17724.6
4.862070000000001e-5,16739.9
4.8694200000000006e-5,15849.2
4.8780100000000004e-5,14913.8
4.8866e-5,14076.2
4.895190000000001e-5,13323.8
4.90377e-5,12646.5
4.91236e-5,12035.800000000001
4.920950000000001e-5,11484.2
4.929540000000001e-5,10985.6
4.9414300000000006e-5,10371.999999999998
4.95137e-5,9920.63
4.9613e-5,9518.13
4.971230000000001e-5,9159.5
4.98448e-5,8742.41
4.99601e-5,8430.5
5.010720000000001e-5,8093.86
5.02544e-5,7818.95
5.03953e-5,7607.95
5.0533000000000006e-5,7446.75
5.06706e-5,7326.96
5.08345e-5,7235.11
5.0964800000000004e-5,7199.7
5.104050000000001e-5,7193.990000000001
5.1206500000000005e-5,7219.03
5.13725e-5,7295.320000000001
5.1536500000000004e-5,7421.31
5.16794e-5,7573.179999999999
5.184750000000001e-5,7803.93
5.199880000000001e-5,8062.22
5.215010000000001e-5,8371.560000000001
5.2276200000000006e-5,8671.060000000001
5.2402300000000005e-5,9011.31
5.2532600000000006e-5,9409.050000000001
5.2671300000000005e-5,9888.58
5.2810000000000004e-5,10431.6
5.2940300000000005e-5,11005.199999999999
5.3066400000000004e-5,11625.0
5.319250000000001e-5,12315.1
5.33186e-5,13083.6
5.344470000000001e-5,13939.3
5.3570800000000006e-5,14892.8
5.3696900000000004e-5,15956.2
5.3823e-5,17143.8
5.394910000000001e-5,18472.2
5.40752e-5,19961.2
5.41592e-5,21054.300000000003
5.427690000000001e-5,22737.1
5.439040000000001e-5,24549.500000000004
5.45039e-5,26575.1
5.457950000000001e-5,28059.3
5.4655200000000005e-5,29662.8
5.473080000000001e-5,31397.9
5.4806500000000005e-5,33278.1
5.49074e-5,36037.9
5.497460000000001e-5,38057.2
5.5041900000000006e-5,40237.0
5.5109100000000004e-5,42593.50000000001
5.51764e-5,45145.200000000004
5.52436e-5,47913.0
5.5310900000000006e-5,50920.50000000001
5.5371800000000004e-5,53875.4
5.54538e-5,58234.6
5.5535700000000004e-5,63095.9
5.559040000000001e-5,66653.8
5.5645e-5,70496.4
5.56997e-5,74654.1
5.57543e-5,79161.3
5.5804700000000005e-5,83665.2
5.587410000000001e-5,90462.2
5.592030000000001e-5,95427.9
5.596660000000001e-5,100782.0
5.601280000000001e-5,106565.0
5.6059000000000007e-5,112821.0
5.61053e-5,119604.0
5.6151500000000006e-5,126973.0
5.62019e-5,135760.0
5.6252400000000004e-5,145429.0
5.6302800000000006e-5,156099.0
5.635320000000001e-5,167912.0
5.6403700000000003e-5,181032.0
5.6454100000000006e-5,195659.0
5.6487800000000005e-5,206361.99999999997
5.6521400000000004e-5,217919.00000000003
5.6555e-5,230423.0
5.65886e-5,243979.0
5.66222e-5,258709.0
5.66559e-5,274751.0
5.66895e-5,292263.0
5.672990000000001e-5,315483.0
5.6756800000000005e-5,332472.0
5.67837e-5,350818.0
5.68105e-5,370670.0
5.6837500000000006e-5,392198.0
5.6864300000000004e-5,415596.00000000006
5.68913e-5,441089.0
5.69165e-5,467120.0
5.694000000000001e-5,493499.0
5.6963500000000004e-5,522126.0
5.698710000000001e-5,553267.0
5.7010600000000006e-5,587229.0
5.703420000000001e-5,624369.0
5.705770000000001e-5,665105.0
5.7081200000000005e-5,709926.0
5.7102200000000004e-5,753863.0
5.7120700000000004e-5,795982.0
5.7139200000000003e-5,841727.0
5.71577e-5,891536.9999999999
5.71762e-5,945914.0
5.719470000000001e-5,1.0054399999999999e6
5.721320000000001e-5,1.07079e6
5.72317e-5,1.14274e6
5.7247500000000004e-5,1.21013e6
5.7267200000000006e-5,1.30266e6
5.72868e-5,1.40612e6
5.730000000000001e-5,1.48199e6
5.73131e-5,1.56403e6
5.73262e-5,1.65284e6
5.73393e-5,1.74912e6
5.7353300000000005e-5,1.86061e6
5.7368100000000004e-5,1.99005e6
5.73828e-5,2.13233e6
5.739760000000001e-5,2.28881e6
5.7411800000000005e-5,2.45281e6
5.74252e-5,2.62358e6
5.743870000000001e-5,2.80982e6
5.7452100000000005e-5,3.01286e6
5.74656e-5,3.23401e6
5.7479e-5,3.47462e6
5.7492500000000006e-5,3.73601e6
5.75059e-5,4.0194599999999995e6
5.751940000000001e-5,4.32614e6
5.7532800000000006e-5,4.65713e6
5.75463e-5,5.01331e6
5.7559700000000004e-5,5.39536e6
5.7573200000000006e-5,5.80366e6
5.75866e-5,6.23827e6
5.7606800000000006e-5,6.93872e6
5.7627e-5,7.69457e6
5.7647100000000006e-5,8.50028e6
5.767400000000001e-5,9.63725e6
5.774130000000001e-5,1.25955e7
5.77682e-5,1.37137e7
5.778800000000001e-5,1.44701e7
5.78072e-5,1.5124200000000002e7
5.78264e-5,1.5685500000000002e7
5.784620000000001e-5,1.61524e7
5.7866400000000006e-5,1.64936e7
5.787980000000001e-5,1.66408e7
5.78989e-5,1.67346e7
5.7903200000000005e-5,1.6736899999999998e7
5.7918800000000005e-5,1.66865e7
5.7939e-5,1.64878e7
5.79592e-5,1.6145099999999998e7
5.797450000000001e-5,1.57959e7
5.7989800000000005e-5,1.5377e7
5.800630000000001e-5,1.48549e7
5.80253e-5,1.41797e7
5.80506e-5,1.3182799999999998e7
5.8091e-5,1.14623e7
5.8138100000000005e-5,9.4335e6
5.8165e-5,8.33648e6
