E(MeV),xs(mb)
1.0e-11,440604.99999999994
1.03223e-11,433687.0
1.06549e-11,426881.0
1.0998399999999998e-11,420179.0
1.13527e-11,413586.0
1.1718599999999999e-11,407094.0
1.2096199999999998e-11,400706.99999999994
1.24861e-11,394418.0
1.2888399999999999e-11,388231.0
1.3303799999999998e-11,382140.0
1.37325e-11,376146.0
1.41751e-11,370245.0
1.4631799999999997e-11,364440.0
1.51034e-11,358723.0
1.5590099999999998e-11,353100.0
1.6092599999999998e-11,347562.0
1.66111e-11,342115.0
1.71465e-11,336751.0
1.7699e-11,331474.0
1.8269399999999998e-11,326278.0
1.88581e-11,321167.0
1.94659e-11,316134.0
2.00931e-11,311183.0
2.0740699999999998e-11,306308.0
2.1408999999999998e-11,301511.0
2.2099099999999997e-11,296790.0
2.28111e-11,292144.0
2.3546399999999998e-11,287570.0
2.4305099999999997e-11,283070.0
2.50884e-11,278639.0
2.5896799999999997e-11,274280.0
2.67315e-11,269989.0
2.75928e-11,265767.0
2.8482199999999998e-11,261610.0
2.93999e-11,257521.00000000003
3.0347499999999995e-11,253494.99999999997
3.13253e-11,249534.0
3.2335e-11,245634.0
3.33769e-11,241798.0
3.44526e-11,238021.0
3.55627e-11,234305.0
3.67089e-11,230647.0
3.7891799999999997e-11,227047.0
3.9113e-11,223504.0
4.0373400000000003e-11,220018.0
4.1674599999999996e-11,216587.0
4.3017399999999996e-11,213210.0
4.440389999999999e-11,209886.99999999997
4.58347e-11,206617.0
4.7311899999999994e-11,203398.0
4.883639999999999e-11,200231.0
5.0410399999999995e-11,197114.0
5.20348e-11,194046.0
5.37119e-11,191027.0
5.54426e-11,188057.0
5.7229499999999995e-11,185133.0
5.907359999999999e-11,182256.0
6.09775e-11,179425.0
6.29424e-11,176639.0
6.497099999999999e-11,173897.0
6.70645e-11,171199.0
6.9226e-11,168543.0
7.145659999999999e-11,165930.0
7.37596e-11,163359.0
7.61364e-11,160829.0
7.85902e-11,158339.0
8.11227e-11,155889.0
8.37372e-11,153478.0
8.643549999999999e-11,151105.0
8.922119999999998e-11,148770.0
9.209619999999999e-11,146473.0
9.506439999999999e-11,144212.0
9.81277e-11,141988.0
1.01291e-10,139798.0
1.04554e-10,137645.0
1.07924e-10,135525.0
1.11402e-10,133440.0
1.1499200000000001e-10,131388.0
1.1869700000000001e-10,129369.0
1.22523e-10,127382.0
1.26471e-10,125427.0
1.30547e-10,123503.0
1.34754e-10,121611.0
1.3909700000000002e-10,119748.00000000001
1.43579e-10,117916.0
1.48207e-10,116113.0
1.52982e-10,114338.99999999999
1.57913e-10,112593.00000000001
1.6300100000000001e-10,110876.0
1.68254e-10,109186.0
1.73676e-10,107524.0
1.79274e-10,105888.0
1.8505000000000002e-10,104279.00000000001
1.91014e-10,102696.00000000001
1.97169e-10,101138.0
2.03524e-10,99605.0
2.1008200000000003e-10,98097.20000000001
2.16853e-10,96613.4
2.2384e-10,95153.9
2.31055e-10,93717.6
2.385e-10,92304.9
2.46187e-10,90914.7
2.5412e-10,89547.3
2.6231e-10,88201.7
2.70762e-10,86878.2
2.7948900000000003e-10,85575.9
2.88494e-10,84294.9
2.9779300000000004e-10,83034.3
3.07388e-10,81794.49999999999
3.1729500000000004e-10,80574.5
3.27519e-10,79374.5
3.38075e-10,78193.8
3.4896900000000003e-10,77032.4
3.6021600000000004e-10,75889.6
3.7182300000000004e-10,74765.6
3.83807e-10,73659.6
3.96174e-10,72571.7
4.08943e-10,71501.3
4.2212e-10,70448.5
4.3572499999999996e-10,69412.5
4.4976500000000005e-10,68393.6
4.6426100000000007e-10,67390.9
4.79221e-10,66404.8
4.94666e-10,65434.5
5.10605e-10,64480.1
5.270620000000001e-10,63541.0
5.440450000000001e-10,62617.3
5.62767e-10,61648.4
5.821320000000001e-10,60696.3
6.02164e-10,59760.7
6.228850000000001e-10,58841.200000000004
6.443190000000001e-10,57937.6
6.66491e-10,57049.700000000004
6.89426e-10,56177.1
7.131500000000001e-10,55319.5
7.376900000000001e-10,54476.8
7.63075e-10,53648.6
7.89333e-10,52834.700000000004
8.16495e-10,52034.799999999996
8.44592e-10,51248.8
8.73655e-10,50476.200000000004
9.037190000000002e-10,49717.0
9.34817e-10,48970.9
9.66985e-10,48237.7
1.00026e-9,47516.99999999999
1.0346800000000002e-9,46808.8
1.07028e-9,46112.700000000004
1.1071100000000001e-9,45428.6
1.1452100000000002e-9,44756.299999999996
1.18462e-9,44095.5
1.22538e-9,43446.100000000006
1.26755e-9,42807.899999999994
1.31117e-9,42180.600000000006
1.35629e-9,41564.0
1.40296e-9,40958.1
1.4512400000000003e-9,40362.5
1.5011699999999999e-9,39777.1
1.5528300000000001e-9,39201.8
1.6062700000000003e-9,38636.3
1.66154e-9,38080.5
1.71872e-9,37534.299999999996
1.7778600000000001e-9,36997.3
1.83904e-9,36469.6
1.90232e-9,35950.9
1.96778e-9,35441.0
2.0355e-9,34939.9
2.10554e-9,34447.299999999996
2.17799e-9,33963.2
2.2529400000000003e-9,33487.3
2.33047e-9,33019.5
2.41066e-9,32559.8
2.49362e-9,32107.800000000003
2.57942e-9,31663.600000000002
2.6738400000000004e-9,31199.9
2.7717000000000003e-9,30744.600000000002
2.87315e-9,30297.5
2.9783e-9,29858.600000000002
3.0873200000000005e-9,29427.500000000004
3.20031e-9,29004.3
3.3174500000000004e-9,28588.7
3.4388600000000003e-9,28180.7
3.5647400000000002e-9,27779.899999999998
3.6952000000000002e-9,27386.499999999996
3.8304600000000004e-9,27000.1
3.97064e-9,26620.8
4.1159800000000005e-9,26248.2
4.26662e-9,25882.399999999998
4.42279e-9,25523.2
4.584660000000001e-9,25170.499999999996
4.75247e-9,24824.1
4.92641e-9,24484.0
5.10673e-9,24150.0
5.2936300000000005e-9,23822.0
5.487390000000001e-9,23499.9
5.688220000000001e-9,23183.699999999997
5.89643e-9,22873.100000000002
6.112230000000001e-9,22568.100000000002
6.335950000000001e-9,22268.6
6.567840000000001e-9,21974.6
6.80824e-9,21685.699999999997
7.072370000000001e-9,21385.6
7.34674e-9,21091.199999999997
7.63176e-9,20802.399999999998
7.92783e-9,20519.0
8.235390000000001e-9,20241.1
8.554880000000001e-9,19968.399999999998
8.886770000000002e-9,19701.0
9.23153e-9,19438.6
9.589670000000001e-9,19181.2
9.9617e-9,18928.7
1.03482e-8,18681.0
1.07496e-8,18438.0
1.11667e-8,18199.7
1.1599900000000001e-8,17965.8
1.20499e-8,17736.4
1.25174e-8,17511.399999999998
1.3003e-8,17290.600000000002
1.3507400000000002e-8,17074.100000000002
1.40611e-8,16849.9
1.46376e-8,16630.2
1.52376e-8,16414.899999999998
1.58623e-8,16203.9
1.65125e-8,15997.2
1.71894e-8,15794.5
1.78941e-8,15595.9
1.86276e-8,15401.3
1.93912e-8,15210.6
2.01862e-8,15023.7
2.10136e-8,14840.500000000002
2.18751e-8,14661.0
2.27718e-8,14485.1
2.37054e-8,14312.7
2.47294e-8,14135.0
2.52522e-8,14048.5
2.5299999999999998e-8,14040.699999999999
2.6392899999999998e-8,13868.7
2.7533e-8,13700.300000000001
2.8722400000000002e-8,13535.4
2.99631e-8,13374.0
3.12574e-8,13215.9
3.26077e-8,13061.199999999999
3.40162e-8,12909.699999999999
3.54856e-8,12761.3
3.7097000000000005e-8,12608.900000000001
3.8781300000000005e-8,12459.9
4.0542299999999996e-8,12314.099999999999
4.2382999999999996e-8,12171.6
4.43075e-8,12032.099999999999
4.6319299999999996e-8,11895.800000000001
4.84225e-8,11762.4
5.06211e-8,11632.0
5.2919700000000004e-8,11504.5
5.5439600000000004e-8,11373.9
5.80796e-8,11246.300000000001
6.084520000000001e-8,11121.6
6.37426e-8,10999.8
6.67779e-8,10880.7
6.99578e-8,10764.400000000001
7.32891e-8,10650.699999999999
7.69413e-8,10534.699999999999
8.077600000000001e-8,10421.400000000001
8.480130000000001e-8,10310.900000000001
8.90277e-8,10202.9
9.34643e-8,10097.6
9.812239999999999e-8,9994.8
1.0301199999999998e-7,9894.460000000001
1.0837499999999999e-7,9792.33
1.1401699999999998e-7,9692.76
1.19952e-7,9595.63
1.26197e-7,9500.880000000001
1.32766e-7,9408.47
1.3997399999999998e-7,9314.640000000001
1.47572e-7,9223.23
1.55583e-7,9134.17
1.64029e-7,9047.41
1.72934e-7,8962.87
1.82707e-7,8877.24
1.93033e-7,8793.89
2.03943e-7,8712.76
2.1546899999999998e-7,8633.82
2.2812800000000002e-7,8554.07
2.4153199999999997e-7,8476.44
2.55722e-7,8400.92
2.7131999999999997e-7,8324.769999999999
2.87869e-7,8250.769999999999
3.0542699999999997e-7,8178.85
3.24057e-7,8108.930000000001
3.4455099999999997e-7,8038.57
3.6634e-7,7970.23
3.89508e-7,7903.85
4.15017e-7,7837.16
4.42197e-7,7772.46
4.7215299999999993e-7,7707.57
5.041409999999999e-7,7644.56
5.38293e-7,7583.41
5.75977e-7,7522.17
6.163e-7,7462.76
6.59445e-7,7405.11
7.071049999999999e-7,7347.42
7.58207e-7,7291.44
8.14725e-7,7235.48
8.754549999999999e-7,7181.19
9.42706e-7,7126.96
1.01367e-6,7075.280000000001
1.1102799999999999e-6,7012.4800000000005
1.2594799999999998e-6,6929.09
1.4797e-6,6827.6
1.8385199999999998e-6,6698.97
2.39922e-6,6551.3
3.1974799999999998e-6,6399.110000000001
4.3517400000000005e-6,6239.93
6.00623e-6,6070.97
8.406679999999999e-6,5883.05
1.1848900000000001e-5,5668.370000000001
1.6701500000000003e-5,5417.43
2.3376400000000002e-5,5121.540000000001
3.2948300000000004e-5,4745.83
5.4559100000000004e-5,3947.75
6.189080000000001e-5,3653.2
6.73181e-5,3412.2200000000003
7.170040000000001e-5,3196.18
7.530190000000001e-5,2998.91
7.85342e-5,2802.64
8.13356e-5,2614.87
8.423260000000002e-5,2401.95
8.78483e-5,2113.68
8.971610000000001e-5,1965.09
9.09818e-5,1873.96
9.19423e-5,1817.05
9.258860000000002e-5,1788.88
9.32261e-5,1773.0
9.354050000000001e-5,1770.89
9.403530000000001e-5,1777.8799999999999
9.43653e-5,1790.84
9.46952e-5,1812.06
9.50274e-5,1843.46
9.5362e-5,1887.28
9.56129e-5,1929.48
9.586390000000001e-5,1981.26
9.611480000000001e-5,2044.4399999999998
9.63724e-5,2122.8199999999997
9.663320000000001e-5,2218.6
9.68071e-5,2293.07
9.6977e-5,2375.13
9.7143e-5,2465.17
9.73133e-5,2568.9500000000003
9.750540000000001e-5,2701.6200000000003
9.770630000000001e-5,2860.3900000000003
9.78722e-5,3009.1899999999996
9.802940000000001e-5,3166.82
9.81866e-5,3342.6800000000003
9.83395e-5,3533.28
9.84705e-5,3713.86
9.862330000000002e-5,3947.0
9.87543e-5,4168.31
9.888530000000001e-5,4411.8
9.901630000000002e-5,4679.98
9.914730000000001e-5,4975.7300000000005
9.927830000000001e-5,5302.360000000001
9.94093e-5,5663.65
9.95403e-5,6063.97
9.96495e-5,6430.990000000001
9.97805e-5,6916.400000000001
9.98787e-5,7316.3099999999995
9.997700000000001e-5,7750.39
0.000100075,8222.2
0.00010018700000000001,8807.64
0.000100304,9493.43
0.000100422,10256.0
0.00010054000000000001,11106.199999999999
0.000100619,11727.7
0.000100697,12398.0
0.00010080700000000001,13418.8
0.000100911,14509.6
0.000101016,15724.499999999998
0.00010108600000000001,16612.100000000002
0.000101156,17568.8
0.000101226,18601.399999999998
0.00010129600000000001,19717.7
0.00010138100000000001,21204.0
0.000101466,22845.399999999998
0.00010155099999999999,24663.5
0.000101636,26683.0
0.000101721,28933.399999999998
0.00010179400000000001,31043.5
0.00010185900000000002,33147.2
0.000101925,35449.700000000004
0.00010199,37975.4
0.000102056,40753.00000000001
0.00010212300000000001,43923.1
0.000102171,46380.7
0.00010221899999999999,49030.5
0.000102267,51892.6
0.000102315,54989.4
0.00010236300000000001,58346.4
0.000102411,61992.9
0.00010245899999999999,65962.2
0.000102501,69679.4
0.000102553,74804.2
0.000102606,80469.9
0.000102658,86753.90000000001
0.000102711,93748.29999999999
0.000102745,98859.0
0.00010278000000000002,104370.99999999999
0.000102815,110328.0
0.00010285,116779.00000000001
0.00010288500000000002,123778.00000000001
0.00010292,131389.0
0.000102955,139688.0
0.00010299000000000002,148757.0
0.00010302500000000001,158698.0
0.000103056,168484.0
0.000103084,177934.0
0.00010311200000000001,188172.0
0.00010314000000000002,199291.0
0.000103168,211397.0
0.000103196,224613.0
0.00010322400000000001,239082.99999999997
0.00010325200000000002,254977.0
0.00010327800000000001,271346.0
0.000103303,288081.0
0.000103327,306412.0
0.00010335200000000001,326555.0
0.00010337600000000001,348766.0
0.0001034,373346.0
0.00010342499999999999,400650.99999999994
0.000103443,423170.0
0.00010346200000000002,447661.0
0.00010348100000000001,475695.0
0.0001035,506459.0
0.00010351900000000001,540303.0
0.000103538,577623.0
0.000103558,618872.0
0.00010357700000000001,664551.0
0.000103596,715235.0
0.00010361,756911.0
0.000103629,815295.0000000001
0.000103643,862492.0
0.000103656,913442.0
0.00010367,968446.9999999999
0.000103683,1.0278400000000001e6
0.000103697,1.09195e6
0.000103711,1.16114e6
0.000103724,1.23577e6
0.00010374000000000002,1.32697e6
0.000103755,1.42612e6
0.00010377000000000002,1.53375e6
0.000103786,1.6504e6
0.0001038,1.76473e6
0.000103814,1.8873e6
0.00010382800000000001,2.0184600000000002e6
0.000103842,2.1585e6
0.000103856,2.30769e6
0.00010387700000000001,2.54898e6
0.000103898,2.81155e6
0.000103919,3.09534e6
0.00010393900000000001,3.39968e6
0.00010396000000000001,3.72341e6
0.000103988,4.1818999999999995e6
0.000104023,4.78893e6
0.000104093,6.04522e6
0.000104121,6.52949e6
0.00010414900000000001,6.98217e6
0.00010417700000000002,7.38855e6
0.00010420400000000001,7.71895e6
0.00010422300000000001,7.92446e6
0.00010424400000000001,8.09435e6
0.00010426500000000002,8.21888e6
0.000104286,8.292120000000001e6
0.000104302,8.3124e6
0.00010431900000000002,8.30025e6
0.00010433600000000001,8.25198e6
0.000104355,8.159330000000001e6
0.000104374,8.026619999999999e6
0.000104393,7.85629e6
0.00010442,7.55017e6
0.00010444500000000002,7.2132e6
0.00010447000000000001,6.83411e6
0.00010449600000000001,6.42336e6
0.00010454600000000001,5.54886e6
0.000104595,4.69176e6
0.000104624,4.1992e6
0.000104647,3.84221e6
0.000104669,3.50445e6
0.000104691,3.18803e6
0.000104714,2.89428e6
0.000104735,2.63999e6
0.00010475600000000001,2.40619e6
0.000104776,2.19246e6
0.00010479,2.0607799999999998e6
0.00010480400000000001,1.93744e6
0.000104818,1.82212e6
0.000104834,1.69897e6
0.00010485300000000001,1.57129e6
0.000104871,1.45503e6
0.00010488900000000002,1.34934e6
0.000104907,1.25338e6
0.000104925,1.16631e6
0.00010494300000000001,1.08734e6
0.000104962,1.0157099999999999e6
0.00010497700000000001,960910.9999999999
0.000104995,900404.0
0.00010501400000000001,845458.0
0.00010503199999999999,795502.0
0.00010505,750010.0
0.00010506899999999999,708513.0
0.000105087,670579.0
0.000105105,635840.0
0.00010512999999999999,593907.0
0.000105154,556357.0
0.00010518,520317.0
0.000105208,485984.0
0.00010523600000000001,455286.0
0.000105264,427709.0
0.00010529200000000001,402824.0
0.00010532,380275.0
0.00010534800000000001,359764.0
0.000105376,341040.0
0.00010540700000000002,321847.0
0.000105442,302551.0
0.000105477,285111.0
0.00010551200000000002,269286.0
0.000105547,254873.0
0.000105582,241703.0
0.00010561700000000002,229630.0
0.000105652,218531.0
0.00010569200000000002,206835.0
0.00010573800000000001,194824.0
0.00010578300000000001,183937.0
0.00010582800000000002,174033.0
0.00010587400000000001,164993.0
0.00010591900000000001,156716.0
0.000105965,149114.0
0.000106033,138822.0
0.000106096,130344.0
0.000106158,122710.00000000001
0.00010622100000000001,115808.0
0.000106284,109544.0
0.00010634699999999999,103841.0
0.00010641,98629.4
0.000106473,93854.0
0.00010653600000000001,89465.5
0.00010662300000000001,83934.5
0.00010671,78975.2
0.000106798,74509.1
0.00010688500000000002,70471.2
0.000106972,66806.8
0.00010706000000000001,63469.7
0.000107147,60420.8
0.00010723400000000001,57626.799999999996
0.000107365,53852.399999999994
0.000107496,50507.7
0.000107627,47527.799999999996
0.00010775800000000001,44860.0
0.000107889,42460.899999999994
0.00010802700000000001,40184.49999999999
0.00010816900000000001,38082.5
0.000108311,36183.9
0.000108452,34461.7
0.000108594,32895.4
0.00010876999999999999,31138.0
0.000108934,29681.8
0.000109099,28412.199999999997
0.000109181,27885.2
0.000109263,27491.2
0.000109324,27334.5
0.000109345,27317.6
0.000109398,27371.6
0.00010945100000000002,27582.100000000002
0.000109504,27951.600000000002
0.000109595,28864.800000000003
0.00010967000000000001,29629.4
0.00010972200000000002,29992.600000000002
0.00010975600000000001,30099.7
0.00010977300000000002,30103.9
0.000109815,29964.8
0.000109856,29616.899999999998
0.00010989100000000001,29171.9
0.000109943,28288.5
0.00011000700000000002,26971.4
0.000110097,25053.7
0.000110157,23911.699999999997
0.000110202,23182.6
0.00011024799999999999,22568.3
0.00011029800000000001,22005.499999999996
0.00011036,21467.3
0.000110442,20921.5
0.00011056500000000001,20303.2
0.00011077,19478.7
0.000111026,18591.100000000002
0.000111302,17744.5
0.000111669,16748.7
0.00011203600000000001,15876.5
0.00011240300000000001,15106.4
0.00011279200000000001,14383.5
0.000113181,13740.9
0.00011357,13166.0
0.00011395900000000001,12649.1
0.00011454200000000002,11964.999999999998
0.00011512500000000002,11372.7
0.00011570800000000001,10853.1
0.00011629100000000002,10394.6
0.00011687399999999999,9986.95
0.000117482,9609.14
0.00011830799999999999,9157.15
0.000119128,8766.61
0.00011994400000000002,8425.57
0.00012077700000000001,8117.839999999999
0.00012205,7710.17
0.000123239,7385.049999999999
0.000124499,7086.56
0.000125795,6819.46
0.000127091,6585.17
0.000128724,6327.15
0.000130357,6102.299999999999
0.00013280600000000002,5813.76
0.00013535,5561.21
0.00013801900000000002,5334.900000000001
0.000140705,5137.47
0.000144506,4897.42
0.00014796100000000003,4710.88
0.000149613,4641.56
0.00014975900000000001,4639.719999999999
0.000149985,4647.15
0.000150107,4669.17
0.00015018800000000002,4704.679999999999
0.000150254,4757.44
0.000150304,4820.490000000001
0.000150355,4909.92
0.000150406,5032.0
0.00015044800000000002,5159.91
0.00015049600000000002,5343.219999999999
0.000150545,5561.57
0.000150604,5866.469999999999
0.00015071300000000002,6453.66
0.000150753,6642.25
0.00015078700000000002,6780.22
0.000150822,6886.53
0.000150856,6955.51
0.000150897,6983.799999999999
0.000150925,6968.39
0.00015096,6911.43
0.000150995,6815.5
0.000151029,6685.64
0.00015106400000000002,6528.47
0.00015111600000000002,6255.82
0.00015122400000000001,5663.400000000001
0.000151271,5429.160000000001
0.000151318,5227.7
0.000151365,5061.58
0.000151411,4928.099999999999
0.000151458,4824.4400000000005
0.000151516,4729.759999999999
0.000151586,4655.48
0.00015165599999999999,4610.280000000001
0.000151762,4572.93
0.000151988,4538.29
0.000152366,4509.54
0.000154007,4428.62
0.00015858500000000001,4242.18
0.000164974,4013.34
0.00017260500000000002,3770.03
0.00017857400000000003,3596.69
0.00017896600000000002,3590.58
0.000179244,3599.61
0.000179368,3624.58
0.00017945100000000001,3663.9300000000003
0.000179516,3718.51
0.00017956300000000002,3777.5099999999998
0.00017961000000000002,3857.42
0.00017965800000000002,3962.38
0.00017969900000000002,4076.69
0.000179734,4191.78
0.00017978700000000002,4395.31
0.000179842,4647.2
0.000179985,5368.68
0.000180035,5598.55
0.000180084,5785.3
0.000180117,5878.8099999999995
0.000180147,5937.96
0.000180182,5974.77
0.000180199,5978.82
0.000180229,5964.31
0.000180259,5923.29
0.00018029200000000003,5848.42
0.000180325,5745.8
0.000180358,5619.65
0.000180416,5357.3
0.00018053900000000001,4734.849999999999
0.000180599,4459.889999999999
0.00018065500000000002,4239.6900000000005
0.000180692,4114.9
0.00018072900000000002,4007.9700000000003
0.000180781,3887.45
0.000180832,3795.82
0.000180884,3728.08
0.000180958,3661.82
0.000181028,3623.4700000000003
0.00018112100000000002,3592.96
0.000181306,3563.22
0.00018173900000000002,3532.7099999999996
0.000182997,3485.0
0.000189471,3305.37
0.00019793000000000002,3090.14
0.000199139,3066.9
0.000199485,3066.89
0.000199711,3079.5699999999997
0.000199819,3100.6
0.000199884,3124.6200000000003
0.00019994900000000002,3162.95
0.000200014,3222.07
0.000200069,3294.29
0.000200114,3372.4500000000003
0.00020015999999999998,3469.9
0.000200205,3588.1
0.000200256,3745.19
0.00020031200000000002,3946.81
0.000200383,4232.7300000000005
0.00020046300000000004,4559.7300000000005
0.00020051999999999998,4775.45
0.00020055900000000003,4897.599999999999
0.00020059399999999998,4985.13
0.000200628,5049.17
0.00020065900000000003,5084.16
0.000200692,5097.46
0.000200726,5084.6
0.000200756,5049.95
0.000200791,4986.17
0.000200825,4898.679999999999
0.00020086400000000003,4776.27
0.00020092,4569.78
0.00020106600000000002,3968.08
0.000201117,3774.41
0.000201165,3615.98
0.00020121000000000003,3490.4
0.00020125400000000002,3384.78
0.00020129800000000004,3298.19
0.00020135000000000002,3218.56
0.000201409,3151.5499999999997
0.000201469,3104.75
0.000201558,3060.79
0.00020165500000000002,3034.44
0.00020181700000000002,3012.94
0.000202076,2996.41
0.000203458,2951.19
0.000235038,2156.97
0.000248661,1799.32
0.00026004900000000004,1487.8899999999999
0.000267153,1290.23
0.000267979,1271.79
0.000268117,1270.67
0.000268297,1274.12
0.00026838400000000004,1280.6
