E(MeV),xs(mb)
1.0e-11,533882.0
1.03223e-11,525505.0
1.06549e-11,517263.0
1.0998399999999998e-11,509149.00000000006
1.13527e-11,501165.00000000006
1.1718599999999999e-11,493305.0
1.2096199999999998e-11,485571.0
1.24861e-11,477956.99999999994
1.2888399999999999e-11,470465.99999999994
1.3303799999999998e-11,463089.99999999994
1.37325e-11,455834.0
1.41751e-11,448689.0
1.4631799999999997e-11,441660.0
1.51034e-11,434740.00000000006
1.5590099999999998e-11,427931.0
1.6092599999999998e-11,421227.0
1.66111e-11,414632.0
1.71465e-11,408138.0
1.7699e-11,401750.0
1.8269399999999998e-11,395460.0
1.88581e-11,389272.0
1.94659e-11,383180.0
2.00931e-11,377185.0
2.0740699999999998e-11,371284.0
2.1408999999999998e-11,365478.0
2.2099099999999997e-11,359763.0
2.28111e-11,354139.0
2.3546399999999998e-11,348603.0
2.4305099999999997e-11,343155.0
2.50884e-11,337793.0
2.5896799999999997e-11,332517.0
2.67315e-11,327323.0
2.75928e-11,322213.0
2.8482199999999998e-11,317182.0
2.93999e-11,312233.0
3.0347499999999995e-11,307361.0
3.13253e-11,302567.0
3.2335e-11,297848.0
3.33769e-11,293205.0
3.44526e-11,288634.0
3.55627e-11,284137.0
3.67089e-11,279710.0
3.7891799999999997e-11,275355.0
3.9113e-11,271068.0
4.0373400000000003e-11,266850.0
4.1674599999999996e-11,262698.0
4.3017399999999996e-11,258612.99999999997
4.440389999999999e-11,254591.0
4.58347e-11,250635.0
4.7311899999999994e-11,246741.0
4.883639999999999e-11,242909.0
5.0410399999999995e-11,239137.99999999997
5.20348e-11,235427.0
5.37119e-11,231775.00000000003
5.54426e-11,228181.0
5.7229499999999995e-11,224644.99999999997
5.907359999999999e-11,221165.0
6.09775e-11,217740.0
6.29424e-11,214370.0
6.497099999999999e-11,211052.99999999997
6.70645e-11,207790.0
6.9226e-11,204578.00000000003
7.145659999999999e-11,201418.0
7.37596e-11,198308.0
7.61364e-11,195248.0
7.85902e-11,192236.0
8.11227e-11,189273.0
8.37372e-11,186357.0
8.643549999999999e-11,183488.0
8.922119999999998e-11,180665.0
9.209619999999999e-11,177887.0
9.506439999999999e-11,175153.0
9.81277e-11,172463.0
1.01291e-10,169815.0
1.04554e-10,167211.0
1.07924e-10,164648.0
1.11402e-10,162126.0
1.1499200000000001e-10,159644.0
1.1869700000000001e-10,157203.0
1.22523e-10,154800.0
1.26471e-10,152437.0
1.30547e-10,150110.0
1.34754e-10,147822.0
1.3909700000000002e-10,145569.0
1.43579e-10,143354.0
1.48207e-10,141173.0
1.52982e-10,139028.0
1.57913e-10,136917.0
1.6300100000000001e-10,134840.0
1.68254e-10,132796.0
1.73676e-10,130785.0
1.79274e-10,128807.0
1.8505000000000002e-10,126860.0
1.91014e-10,124944.00000000001
1.97169e-10,123059.99999999999
2.03524e-10,121205.99999999999
2.1008200000000003e-10,119381.0
2.16853e-10,117585.99999999999
2.2384e-10,115819.99999999999
2.31055e-10,114082.0
2.385e-10,112372.0
2.46187e-10,110689.0
2.5412e-10,109034.00000000001
2.6231e-10,107405.0
2.70762e-10,105802.0
2.7948900000000003e-10,104224.99999999999
2.88494e-10,102674.0
2.9779300000000004e-10,101147.00000000001
3.07388e-10,99645.49999999999
3.1729500000000004e-10,98167.4
3.27519e-10,96713.40000000001
3.38075e-10,95282.5
3.4896900000000003e-10,93874.9
3.6021600000000004e-10,92489.6
3.7182300000000004e-10,91126.79999999999
3.83807e-10,89785.6
3.96174e-10,88466.29999999999
4.08943e-10,87167.8
4.2212e-10,85890.5
4.3572499999999996e-10,84633.40000000001
4.4976500000000005e-10,83396.7
4.6426100000000007e-10,82179.59999999999
4.80237e-10,80902.99999999999
4.967620000000001e-10,79648.3
5.13856e-10,78414.90000000001
5.31539e-10,77202.7
5.498300000000001e-10,76011.1
5.6875e-10,74839.90000000001
5.88321e-10,73688.7
6.08566e-10,72557.09999999999
6.29507e-10,71444.90000000001
6.5117e-10,70351.6
6.735769999999999e-10,69277.0
6.96756e-10,68220.7
7.207320000000001e-10,67182.4
7.45533e-10,66161.8
7.71188e-10,65158.6
7.97725e-10,64172.399999999994
8.251760000000001e-10,63203.1
8.53571e-10,62250.3
8.829430000000001e-10,61313.700000000004
9.13327e-10,60393.0
9.44755e-10,59488.0
9.772650000000001e-10,58598.4
1.0108900000000002e-9,57723.899999999994
1.04568e-9,56864.2
1.0816600000000002e-9,56019.2
1.1188800000000002e-9,55188.6
1.15739e-9,54372.100000000006
1.1972100000000003e-9,53569.4
1.23841e-9,52780.4
1.28103e-9,52004.799999999996
1.3251100000000002e-9,51242.299999999996
1.3707100000000001e-9,50492.8
1.41787e-9,49756.0
1.4666600000000002e-9,49031.700000000004
1.5171300000000001e-9,48319.700000000004
1.56934e-9,47619.8
1.6233400000000001e-9,46931.700000000004
1.6792000000000002e-9,46255.3
1.7369900000000002e-9,45590.4
1.7967600000000001e-9,44936.7
1.85859e-9,44294.1
1.92254e-9,43662.5
1.9887e-9,43041.5
2.05714e-9,42431.0
2.1279200000000002e-9,41830.9
2.2011500000000004e-9,41240.9
2.27689e-9,40660.9
2.35524e-9,40090.8
2.43629e-9,39530.3
2.52013e-9,38979.3
2.6068500000000004e-9,38437.6
2.70225e-9,37872.2
2.80116e-9,37316.799999999996
2.90368e-9,36771.5
3.0099600000000002e-9,36235.9
3.12012e-9,35709.9
3.23433e-9,35193.4
3.3527000000000002e-9,34686.2
3.4754200000000004e-9,34188.1
3.60262e-9,33698.9
3.7344800000000005e-9,33218.4
3.87116e-9,32746.7
4.01286e-9,32283.300000000003
4.159720000000001e-9,31828.3
4.31198e-9,31381.399999999998
4.46979e-9,30942.6
4.6334e-9,30511.6
4.8029700000000004e-9,30088.4
4.9787800000000005e-9,29672.7
5.16099e-9,29264.5
5.3499e-9,28863.6
5.545700000000001e-9,28470.0
5.74869e-9,28083.300000000003
5.9590800000000005e-9,27703.7
6.1772100000000004e-9,27330.800000000003
6.40328e-9,26964.600000000002
6.6376600000000004e-9,26604.899999999998
6.8805900000000005e-9,26251.699999999997
7.13244e-9,25904.8
7.39348e-9,25564.100000000002
7.680310000000001e-9,25210.0
7.97826e-9,24862.600000000002
8.28778e-9,24521.8
8.60931e-9,24187.4
8.9433e-9,23859.4
9.290260000000001e-9,23537.6
9.65068e-9,23221.8
1.0025100000000001e-8,22912.1
1.0414000000000001e-8,22608.199999999997
1.0818000000000001e-8,22310.1
1.12377e-8,22017.699999999997
1.1673700000000001e-8,21730.7
1.2126500000000001e-8,21449.3
1.2597e-8,21173.1
1.3085700000000001e-8,20902.2
1.35933e-8,20636.3
1.41207e-8,20375.5
1.46685e-8,20119.600000000002
1.52699e-8,19854.6
1.58958e-8,19595.0
1.65475e-8,19340.5
1.72258e-8,19091.2
1.7931999999999998e-8,18846.7
1.8667e-8,18607.2
1.94323e-8,18372.4
2.02289e-8,18142.3
2.10582e-8,17916.7
2.1921400000000003e-8,17695.7
2.28201e-8,17479.100000000002
2.37555e-8,17266.8
2.47294e-8,17058.7
2.52522e-8,16951.9
2.5299999999999998e-8,16942.4
2.6392899999999998e-8,16730.2
2.7533e-8,16522.399999999998
2.8722400000000002e-8,16318.999999999998
2.99631e-8,16119.699999999999
3.12574e-8,15924.6
3.26077e-8,15733.6
3.40162e-8,15546.5
3.54856e-8,15363.4
3.70185e-8,15184.1
3.86176e-8,15008.5
4.03712e-8,14827.999999999998
4.2204199999999996e-8,14651.400000000001
4.4120600000000007e-8,14478.599999999999
4.61238e-8,14309.6
4.82182e-8,14144.2
5.0407400000000004e-8,13982.4
5.26963e-8,13824.099999999999
5.50889e-8,13669.199999999999
5.7590399999999997e-8,13517.699999999999
6.02052e-8,13369.4
6.30721e-8,13217.4
6.60755e-8,13068.900000000001
6.92219e-8,12923.7
7.251810000000001e-8,12781.800000000001
7.59713e-8,12643.1
7.9589e-8,12507.4
8.35556e-8,12368.699999999999
8.771940000000001e-8,12233.199999999999
9.209120000000001e-8,12100.800000000001
9.668049999999999e-8,11971.5
1.01499e-7,11845.1
1.0655699999999998e-7,11721.6
1.1186799999999998e-7,11600.900000000001
1.1769099999999998e-7,11477.900000000001
1.23818e-7,11357.699999999999
1.30264e-7,11240.4
1.37045e-7,11125.8
1.4417899999999998e-7,11013.800000000001
1.51685e-7,10904.400000000001
1.59919e-7,10793.1
1.68601e-7,10684.6
1.77753e-7,10578.6
1.87403e-7,10475.000000000002
1.9757499999999997e-7,10373.8
2.0874199999999998e-7,10270.999999999998
2.20539e-7,10170.699999999999
2.3300299999999996e-7,10072.8
2.46172e-7,9977.27
2.60636e-7,9880.49
2.75949e-7,9786.0
2.92162e-7,9693.8
3.09327e-7,9603.859999999999
3.27502e-7,9516.130000000001
3.47478e-7,9427.44
3.68672e-7,9341.060000000001
3.91159e-7,9256.94
4.15017e-7,9175.179999999998
4.41262e-7,9092.88
4.68177e-7,9015.74
4.967329999999999e-7,8941.16
5.27031e-7,8869.05
5.59177e-7,8799.609999999999
5.920309999999999e-7,8735.38
6.268139999999999e-7,8674.2
6.62239e-7,8618.52
6.99667e-7,8566.470000000001
7.376499999999999e-7,8520.279999999999
7.76051e-7,8480.21
8.14725e-7,8446.529999999999
8.517200000000001e-7,8420.59
8.885120000000001e-7,8401.0
9.24933e-7,8388.070000000002
9.58789e-7,8382.16
9.73855e-7,8381.51
1.0073700000000001e-6,8384.75
1.0432999999999998e-6,8396.050000000001
1.08046e-6,8417.04
1.119e-6,8450.18
1.15886e-6,8498.519999999999
1.19179e-6,8550.98
1.2256499999999999e-6,8618.68
1.26048e-6,8705.25
1.2963e-6,8815.82
1.3238599999999999e-6,8918.65
1.3519399999999998e-6,9041.92
1.3806799999999998e-6,9191.02
1.4099699999999999e-6,9371.44
1.43995e-6,9592.119999999999
1.4602699999999998e-6,9766.17
1.4808699999999999e-6,9966.609999999999
1.50176e-6,10199.1
1.52295e-6,10470.3
1.54443e-6,10788.3
1.56074e-6,11063.7
1.57719e-6,11376.699999999999
1.59388e-6,11735.9
1.6107299999999999e-6,12148.6
1.6277299999999999e-6,12625.699999999999
1.63917e-6,12986.800000000001
1.6506899999999999e-6,13388.0
1.6623e-6,13835.4
1.6739799999999999e-6,14336.3
1.68575e-6,14899.500000000002
1.6975999999999998e-6,15535.8
1.7095299999999999e-6,16258.1
1.71852e-6,16865.0
1.7276e-6,17540.3
1.73668e-6,18287.2
1.74584e-6,19124.3
1.7550399999999998e-6,20062.3
1.76425e-6,21113.300000000003
1.77358e-6,22314.1
1.7797999999999999e-6,23201.9
1.7860199999999998e-6,24169.100000000002
1.79229e-6,25233.3
1.7985999999999998e-6,26407.9
1.80491e-6,27699.5
1.81122e-6,29124.2
1.8175799999999998e-6,30712.600000000002
1.82398e-6,32491.4
1.8303799999999997e-6,34478.0
1.8351799999999999e-6,36124.7
1.8399799999999998e-6,37924.1
1.84484e-6,39925.4
1.84971e-6,42128.2
1.8545799999999999e-6,44561.200000000004
1.85944e-6,47257.99999999999
1.8643099999999997e-6,50259.200000000004
1.86922e-6,53646.9
1.8725199999999998e-6,56147.0
1.87581e-6,58857.4
1.8791e-6,61803.299999999996
1.88239e-6,65013.8
1.8856799999999999e-6,68522.8
1.8889699999999998e-6,72370.5
1.89226e-6,76604.40000000001
1.89511e-6,80628.3
1.89796e-6,85028.6
1.90081e-6,89858.0
1.9036599999999998e-6,95179.9
1.90651e-6,101072.0
1.90936e-6,107631.00000000001
1.9115e-6,113060.0
1.91364e-6,118995.0
1.91619e-6,126848.99999999999
1.91844e-6,134603.0
1.92069e-6,143276.0
1.92238e-6,150493.0
1.92407e-6,158423.0
1.92576e-6,167179.0
1.92745e-6,176896.0
1.92914e-6,187736.0
1.9308299999999998e-6,199893.0
1.93252e-6,213600.0
1.93378e-6,225061.0
1.93519e-6,239164.99999999997
1.9366e-6,254917.99999999997
1.93765e-6,267959.0
1.93871e-6,282180.0
1.93976e-6,297708.0
1.94082e-6,314686.0
1.94187e-6,333266.0
1.94293e-6,353618.0
1.94399e-6,375928.0
1.9449899999999997e-6,399033.0
1.94596e-6,423515.0
1.94693e-6,450179.0
1.9479e-6,479222.00000000006
1.94887e-6,510849.0
1.9498399999999998e-6,545284.0
1.95081e-6,582759.0
1.95178e-6,623522.0
1.95275e-6,667833.0
1.9537199999999997e-6,715964.0
1.9547e-6,768197.0
1.9558199999999997e-6,834282.9999999999
1.95695e-6,906752.0
1.95807e-6,986092.0
1.9592e-6,1.0728e6
1.96032e-6,1.16737e6
1.9614499999999997e-6,1.27032e6
1.96258e-6,1.38213e6
1.9637e-6,1.50329e6
1.9648299999999998e-6,1.63428e6
1.9659499999999998e-6,1.77551e6
1.96708e-6,1.9274e6
1.96821e-6,2.0903e6
1.96933e-6,2.26452e6
1.97046e-6,2.45029e6
1.97158e-6,2.64779e6
1.9731599999999998e-6,2.94413e6
1.9745099999999998e-6,3.21649e6
1.9758599999999997e-6,3.50552e6
1.97766e-6,3.91586e6
1.97946e-6,4.35292e6
1.9813799999999997e-6,4.84343e6
1.98357e-6,5.4335e6
1.98771e-6,6.59288e6
1.99167e-6,7.70549e6
1.9941499999999998e-6,8.36586e6
1.9968499999999998e-6,9.02674e6
1.99865e-6,9.42021e6
2.0004499999999996e-6,9.7674e6
2.00225e-6,1.00617e7
2.00405e-6,1.0297400000000002e7
2.00585e-6,1.04698e7
2.00734e-6,1.05619e7
2.0091999999999998e-6,1.06115e7
2.00956e-6,1.06126e7
2.01117e-6,1.05836e7
2.0130599999999996e-6,1.04797e7
2.01486e-6,1.03129e7
2.01666e-6,1.00836e7
2.01846e-6,9.79655e6
2.02027e-6,9.45765e6
2.0220699999999997e-6,9.07363e6
2.02477e-6,8.42924e6
2.02774e-6,7.65381e6
2.0348e-6,5.73028e6
2.0369999999999997e-6,5.15681e6
2.0389499999999998e-6,4.67054e6
2.0409099999999997e-6,4.21075e6
2.04238e-6,3.8866e6
2.04385e-6,3.5815e6
2.04532e-6,3.29625e6
2.0468199999999997e-6,3.02569e6
2.0483799999999996e-6,2.76622e6
2.0499499999999997e-6,2.52969e6
2.05099e-6,2.38451e6
2.05204e-6,2.24905e6
2.0530799999999997e-6,2.12306e6
2.0541299999999995e-6,2.0062000000000002e6
2.05534e-6,1.88107e6
2.0567299999999997e-6,1.75199e6
2.05812e-6,1.63667e6
2.0595099999999998e-6,1.53409e6
2.06063e-6,1.46021e6
2.06206e-6,1.37555e6
2.0634899999999995e-6,1.3012e6
2.06475e-6,1.24323e6
2.06602e-6,1.19163e6
2.0672799999999995e-6,1.14565e6
2.06896e-6,1.09188e6
2.07065e-6,1.04529e6
2.07233e-6,1.00447e6
2.07469e-6,954570.0
2.07747e-6,903004.0
2.08799e-6,725735.0
2.09287e-6,638544.0
2.10169e-6,476438.0
2.10469e-6,423860.0
2.10669e-6,390456.0
2.10864e-6,359485.0
2.1105299999999995e-6,331002.0
2.11243e-6,304277.0
2.11432e-6,279394.0
2.1162200000000003e-6,256395.00000000003
2.11811e-6,235285.0
2.11953e-6,220677.0
2.12095e-6,207092.0
2.12237e-6,194499.0
2.12393e-6,181830.0
2.12554e-6,169777.0
2.12716e-6,158831.0
2.1287799999999997e-6,148918.0
2.1303999999999995e-6,139961.0
2.13202e-6,131882.0
2.13364e-6,124606.0
2.13525e-6,118058.0
2.13687e-6,112167.0
2.13849e-6,106866.0
2.14011e-6,102092.0
2.1419899999999997e-6,97113.9
2.14388e-6,92689.8
2.14577e-6,88745.7
2.14766e-6,85215.8
2.1504899999999997e-6,80573.8
2.15332e-6,76573.8
2.1561499999999997e-6,73086.90000000001
2.15898e-6,70012.0
2.1627499999999997e-6,66420.4
2.16653e-6,63286.2
2.1703e-6,60511.799999999996
2.1741299999999996e-6,57994.6
2.17987e-6,54668.6
2.18561e-6,51777.49999999999
2.1913499999999998e-6,49238.4
2.1970900000000003e-6,46992.1
2.20286e-6,44984.799999999996
2.20868e-6,43176.6
2.2164499999999998e-6,41056.100000000006
2.2242099999999997e-6,39218.1
2.23197e-6,37619.4
2.23984e-6,36207.6
2.2477200000000002e-6,34978.4
2.25559e-6,33909.1
2.26745e-6,32560.1
2.27943e-6,31474.8
2.2913999999999998e-6,30629.300000000003
2.3034899999999998e-6,29990.3
2.31563e-6,29543.9
2.3277800000000003e-6,29279.0
2.34007e-6,29186.3
2.3524500000000002e-6,29266.7
2.3648299999999998e-6,29520.7
2.37727e-6,29954.3
2.38983e-6,30581.7
2.40238e-6,31414.1
2.41505e-6,32483.0
2.4277899999999996e-6,33817.4
2.43627e-6,34870.9
2.44482e-6,36081.0
2.45343e-6,37468.3
2.4620399999999997e-6,39045.8
2.47065e-6,40838.700000000004
2.47931e-6,42892.6
2.4880399999999996e-6,45250.6
2.49677e-6,47945.9
2.50332e-6,50222.9
2.50987e-6,52750.8
2.51651e-6,55605.799999999996
2.5231499999999997e-6,58796.600000000006
2.52979e-6,62374.0
2.53642e-6,66398.90000000001
2.54306e-6,70945.7
2.54752e-6,74335.9
2.55201e-6,78061.8
2.5565e-6,82139.7
2.56099e-6,86615.0
2.5654799999999997e-6,91541.0
2.5699599999999997e-6,96980.90000000001
2.57445e-6,103009.0
2.57894e-6,109717.0
2.58299e-6,116431.0
2.58659e-6,123023.0
2.59019e-6,130278.0
2.5937899999999998e-6,138296.0
2.5973899999999996e-6,147195.0
2.60099e-6,157122.0
2.60369e-6,165350.0
2.6063900000000003e-6,174354.0
2.60909e-6,184251.0
2.61133e-6,193271.0
2.61403e-6,205175.00000000003
2.61673e-6,218461.00000000003
2.6194199999999996e-6,233393.0
2.6214400000000003e-6,245870.0
2.62346e-6,259631.0
2.62549e-6,274882.0
2.6275099999999997e-6,291873.0
2.62953e-6,310899.0
2.63155e-6,332316.0
2.63304e-6,349785.0
2.63452e-6,368961.0
2.636e-6,390064.0
2.63748e-6,413343.0
2.63897e-6,439079.99999999994
2.64045e-6,467591.99999999994
2.6419299999999996e-6,499233.0
2.64341e-6,534397.0
2.6449e-6,573528.0
2.64638e-6,617111.0
2.64737e-6,648903.0
2.64881e-6,699460.0
2.6498799999999997e-6,741037.0
2.65096e-6,786035.0
2.65204e-6,834728.9999999999
2.6531199999999998e-6,887405.0
2.6542e-6,944370.0
2.6552799999999997e-6,1.00594e6
2.65635e-6,1.07245e6
2.65743e-6,1.14424e6
2.65851e-6,1.22168e6
2.65959e-6,1.30513e6
2.66067e-6,1.39498e6
2.66175e-6,1.49161e6
2.66282e-6,1.59542e6
2.6639e-6,1.7068e6
2.6649799999999998e-6,1.82615e6
2.66606e-6,1.95388e6
2.6675e-6,2.13787e6
2.66894e-6,2.33833e6
2.67037e-6,2.55612e6
2.67167e-6,2.76762e6
2.67296e-6,2.99431e6
2.6742599999999997e-6,3.23666e6
2.6755499999999997e-6,3.49505e6
2.6768399999999998e-6,3.76977e6
2.6781399999999997e-6,4.0609900000000005e6
2.68008e-6,4.52888e6
2.6817299999999996e-6,4.9566e6
2.6837399999999997e-6,5.51255e6
2.68576e-6,6.10526e6
2.68827e-6,6.89319e6
2.6909299999999995e-6,7.77431e6
2.6945299999999998e-6,9.02059e6
2.7012e-6,1.1365400000000002e7
2.70465e-6,1.25048e7
2.70695e-6,1.3203e7
2.70925e-6,1.3835e7
2.71155e-6,1.43866e7
2.71385e-6,1.4845299999999998e7
2.71615e-6,1.52004e7
2.7183399999999997e-6,1.54341e7
2.7205199999999997e-6,1.55617e7
2.72189e-6,1.55863e7
2.7239699999999997e-6,1.55414e7
2.7262699999999996e-6,1.53778e7
2.72858e-6,1.50986e7
2.73088e-6,1.47108e7
2.73318e-6,1.42238e7
2.7354799999999998e-6,1.3649e7
2.7377799999999997e-6,1.29996e7
2.7412299999999997e-6,1.19168e7
2.74554e-6,1.04483e7
2.75201e-6,8.198e6
2.75535e-6,7.09191e6
2.75786e-6,6.30506e6
2.75988e-6,5.71146e6
2.76189e-6,5.15317e6
2.76369e-6,4.68627e6
2.76563e-6,4.21654e6
2.76692e-6,3.92353e6
2.7682199999999997e-6,3.64661e6
2.7695099999999998e-6,3.38564e6
2.7708e-6,3.14036e6
2.7720999999999997e-6,2.91043e6
2.77346e-6,2.68392e6
2.7749e-6,2.46284e6
2.77634e-6,2.25883e6
2.7777799999999998e-6,2.0710700000000002e6
2.77921e-6,1.89872e6
2.78065e-6,1.7409e6
2.78209e-6,1.5967e6
2.78317e-6,1.49695e6
2.78425e-6,1.40398e6
2.7852499999999997e-6,1.323e6
2.7862599999999996e-6,1.2473e6
2.78727e-6,1.17659e6
2.7882699999999996e-6,1.11059e6
2.78928e-6,1.04902e6
2.7907899999999998e-6,964394.0000000001
2.7923e-6,888280.0
2.79381e-6,819872.0
2.79532e-6,758418.0
2.7968299999999996e-6,703220.0
2.79834e-6,653636.0
2.79985e-6,609076.0
2.8009599999999997e-6,579092.0
2.80218e-6,548782.0
2.80341e-6,520930.0
2.8046299999999998e-6,495315.0
2.80646e-6,460642.0
2.80829e-6,429929.99999999994
2.81013e-6,402640.0
2.81196e-6,378309.0
2.8137899999999998e-6,356535.0
2.8156299999999998e-6,336974.0
2.81746e-6,319330.0
2.81929e-6,303350.0
2.8215199999999997e-6,285856.0
2.82395e-6,268865.0
2.8263699999999998e-6,253686.0
2.8288e-6,240038.99999999997
2.83123e-6,227697.0
2.83284e-6,220102.00000000003
2.8360799999999997e-6,206226.99999999997
2.8393099999999995e-6,193857.0
2.84255e-6,182755.0
2.84578e-6,172731.0
2.84938e-6,162676.0
2.85297e-6,153601.0
2.85657e-6,145371.0
2.86016e-6,137877.0
2.8637599999999998e-6,131027.99999999999
2.8673499999999997e-6,124746.0
2.87274e-6,116251.0
2.87708e-6,110124.0
2.88214e-6,103635.00000000001
2.88721e-6,97783.9
2.8922799999999997e-6,92486.09999999999
2.89735e-6,87671.50000000001
2.90242e-6,83280.9
2.90749e-6,79264.3
2.9151e-6,73848.90000000001
2.92281e-6,68997.40000000001
2.93052e-6,64691.299999999996
2.9382299999999996e-6,60849.799999999996
2.9459399999999994e-6,57406.49999999999
2.95365e-6,54307.0
2.96144e-6,51480.7
2.96926e-6,48907.8
2.9770799999999997e-6,46568.8
2.9874999999999998e-6,43765.799999999996
2.99793e-6,41273.299999999996
3.0085e-6,39016.3
3.01908e-6,36993.4
3.02965e-6,35172.2
3.04022e-6,33525.8
3.0509499999999996e-6,32011.6
3.06167e-6,30634.199999999997
3.07775e-6,28788.999999999996
3.0939899999999997e-6,27155.0
3.1103e-6,25707.399999999998
3.1266099999999997e-6,24423.9
3.14316e-6,23264.7
3.1597e-6,22227.899999999998
3.18191e-6,20998.5
3.20427e-6,19918.6
3.2267999999999998e-6,18964.1
3.24948e-6,18116.1
3.27232e-6,17358.8
3.2953299999999996e-6,16679.600000000002
3.3184900000000002e-6,16067.9
3.3534799999999996e-6,15260.0
3.38896e-6,14559.3
3.42478e-6,13950.6
3.4609299999999997e-6,13418.699999999999
3.4974299999999997e-6,12953.300000000001
3.53443e-6,12544.900000000001
3.57179e-6,12189.5
3.62218e-6,11790.0
3.67328e-6,11471.1
3.7251099999999996e-6,11235.5
3.76443e-6,11119.4
3.8075e-6,11063.5
3.81427e-6,11062.5
3.84458e-6,11088.3
3.87151e-6,11159.699999999999
3.89882e-6,11290.800000000001
3.92613e-6,11498.2
3.9468999999999994e-6,11722.8
3.96767e-6,12023.2
3.98152e-6,12277.0
3.995559999999999e-6,12589.4
4.00961e-6,12970.699999999999
4.02365e-6,13439.099999999999
4.03418e-6,13862.6
4.04427e-6,14340.800000000001
4.05414e-6,14893.300000000001
4.064009999999999e-6,15550.6
4.070579999999999e-6,16060.6
4.07716e-6,16640.600000000002
4.08374e-6,17304.5
4.09032e-6,18070.8
