E(MeV),xs(mb)
1.0e-11,86374.5
1.03223e-11,85022.8
1.06549e-11,83693.00000000001
1.0998399999999998e-11,82383.7
1.13527e-11,81095.7
1.1718599999999999e-11,79827.6
1.2096199999999998e-11,78580.0
1.24861e-11,77351.7
1.2888399999999999e-11,76143.40000000001
1.3303799999999998e-11,74953.7
1.37325e-11,73783.3
1.41751e-11,72631.0
1.4631799999999997e-11,71497.5
1.51034e-11,70381.5
1.5590099999999998e-11,69283.59999999999
1.6092599999999998e-11,68202.7
1.66111e-11,67139.4
1.71465e-11,66092.6
1.7699e-11,65062.8
1.8269399999999998e-11,64048.9
1.88581e-11,63051.6
1.94659e-11,62069.700000000004
2.00931e-11,61103.8
2.0740699999999998e-11,60152.9
2.1408999999999998e-11,59217.5
2.2099099999999997e-11,58296.700000000004
2.28111e-11,57390.8
2.3546399999999998e-11,56499.1
2.4305099999999997e-11,55621.799999999996
2.50884e-11,54758.2
2.5896799999999997e-11,53908.7
2.67315e-11,53072.5
2.75928e-11,52249.9
2.8482199999999998e-11,51440.200000000004
2.93999e-11,50643.6
3.0347499999999995e-11,49859.600000000006
3.13253e-11,49088.3
3.2335e-11,48329.1
3.33769e-11,47582.3
3.44526e-11,46847.3
3.55627e-11,46124.200000000004
3.67089e-11,45412.600000000006
3.7891799999999997e-11,44712.50000000001
3.9113e-11,44023.5
4.0373400000000003e-11,43345.700000000004
4.1674599999999996e-11,42678.700000000004
4.3017399999999996e-11,42022.5
4.440389999999999e-11,41376.799999999996
4.58347e-11,40741.6
4.7311899999999994e-11,40116.50000000001
4.883639999999999e-11,39501.6
5.0410399999999995e-11,38896.5
5.20348e-11,38301.4
5.37119e-11,37715.700000000004
5.54426e-11,37139.6
5.7229499999999995e-11,36572.7
5.907359999999999e-11,36015.1
6.09775e-11,35466.5
6.29424e-11,34926.9
6.497099999999999e-11,34395.9
6.70645e-11,33873.700000000004
6.9226e-11,33359.9
7.145659999999999e-11,32854.6
7.37596e-11,32357.399999999998
7.61364e-11,31868.4
7.85902e-11,31387.399999999998
8.11227e-11,30914.3
8.37372e-11,30448.9
8.643549999999999e-11,29991.2
8.922119999999998e-11,29540.899999999998
9.209619999999999e-11,29098.199999999997
9.506439999999999e-11,28662.6
9.81277e-11,28234.3
1.01291e-10,27813.0
1.04554e-10,27398.8
1.07924e-10,26991.3
1.11402e-10,26590.8
1.1499200000000001e-10,26196.7
1.1869700000000001e-10,25809.3
1.22523e-10,25428.3
1.26471e-10,25053.800000000003
1.30547e-10,24685.3
1.34754e-10,24323.199999999997
1.3909700000000002e-10,23967.100000000002
1.43579e-10,23617.1
1.48207e-10,23272.8
1.52982e-10,22934.5
1.57913e-10,22601.8
1.6300100000000001e-10,22274.8
1.68254e-10,21953.3
1.73676e-10,21637.300000000003
1.79274e-10,21326.7
1.8505000000000002e-10,21021.399999999998
1.91014e-10,20721.3
1.97169e-10,20426.4
2.03954e-10,20117.4
2.10972e-10,19814.1
2.18232e-10,19516.4
2.2574200000000003e-10,19224.2
2.3351e-10,18937.4
2.41545e-10,18655.9
2.4985700000000003e-10,18379.7
2.58455e-10,18108.6
2.67349e-10,17842.6
2.76548e-10,17581.6
2.8606500000000004e-10,17325.600000000002
2.9590800000000005e-10,17074.3
3.06091e-10,16827.8
3.16624e-10,16586.1
3.27519e-10,16348.9
3.3879000000000003e-10,16116.3
3.50448e-10,15888.1
3.62507e-10,15664.3
3.7498100000000004e-10,15444.9
3.87885e-10,15229.699999999999
4.0123300000000005e-10,15018.7
4.1504000000000005e-10,14811.8
4.2932100000000003e-10,14608.9
4.44095e-10,14410.099999999999
4.5937700000000005e-10,14215.1
4.75185e-10,14024.099999999999
4.91536e-10,13836.800000000001
5.08451e-10,13653.2
5.25947e-10,13473.3
5.440450000000001e-10,13297.000000000002
5.6396e-10,13113.6
5.84599e-10,12934.1
6.059980000000001e-10,12758.400000000001
6.281760000000001e-10,12586.599999999999
6.5117e-10,12418.499999999998
6.75001e-10,12254.0
6.99708e-10,12093.1
7.253160000000001e-10,11935.800000000001
7.51866e-10,11781.8
7.793820000000001e-10,11631.3
8.079100000000001e-10,11484.099999999999
8.37478e-10,11340.2
8.681330000000001e-10,11199.5
8.999050000000001e-10,11061.9
9.32845e-10,10927.3
9.690340000000002e-10,10788.199999999999
1.00663e-9,10652.3
1.04568e-9,10519.7
1.08625e-9,10390.3
1.12839e-9,10264.0
1.1721600000000002e-9,10140.6
1.2176400000000002e-9,10020.3
1.26488e-9,9902.84
1.31395e-9,9788.23
1.36781e-9,9670.25
1.42388e-9,9555.26
1.4822500000000001e-9,9443.22
1.5430200000000001e-9,9334.03
1.6062700000000003e-9,9227.650000000001
1.6721200000000002e-9,9123.97
1.7406600000000003e-9,9022.949999999999
1.8120200000000001e-9,8924.5
1.8903000000000004e-9,8823.59
1.9719500000000004e-9,8725.4
2.05714e-9,8629.84
2.1460000000000002e-9,8536.84
2.2387e-9,8446.33
2.3403400000000002e-9,8353.9
2.4466100000000005e-9,8264.05
2.5577000000000004e-9,8176.73
2.6738400000000004e-9,8091.83
2.7952400000000004e-9,8009.299999999999
2.92217e-9,7929.05
3.0613100000000005e-9,7847.37
3.2070900000000003e-9,7768.049999999999
3.3598100000000002e-9,7691.0199999999995
3.5198e-9,7616.2
3.6952000000000002e-9,7540.28
3.87936e-9,7466.62
4.07269e-9,7395.150000000001
4.2756600000000005e-9,7325.79
4.49825e-9,7255.61
4.7324200000000005e-9,7187.58
4.9787800000000005e-9,7121.63
5.24904e-9,7055.08
5.534e-9,6990.62
5.8344e-9,6928.200000000001
6.15114e-9,6867.73
6.49878e-9,6806.860000000001
6.86607e-9,6747.96
7.254120000000001e-9,6690.959999999999
7.680310000000001e-9,6633.71
8.13157e-9,6578.36
8.62755e-9,6522.9
9.15378e-9,6469.34
9.71211e-9,6417.6
1.0326299999999999e-8,6365.88
1.0979300000000002e-8,6315.959999999999
1.16984e-8,6266.16
1.24645e-8,6218.15
1.33089e-8,6170.35
1.42106e-8,6124.31
1.52054e-8,6078.56
1.62699e-8,6034.54
1.74457e-8,5990.88
1.87066e-8,5948.91
2.0101e-8,5907.36
2.1599300000000003e-8,5867.46
2.32585e-8,5828.02
2.50981e-8,5789.12
2.52522e-8,5786.06
2.5299999999999998e-8,5785.12
2.73011e-8,5748.0
2.95229e-8,5711.44
3.1993e-8,5675.5
3.47432e-8,5640.23
3.7729800000000003e-8,5606.51
4.1059900000000006e-8,5573.48
4.4778399999999994e-8,5541.16
4.8937099999999996e-8,5509.59
5.359530000000001e-8,5478.799999999999
5.88211e-8,5448.8099999999995
6.4693e-8,5419.660000000001
7.13017e-8,5391.35
7.875210000000001e-8,5363.92
8.716490000000001e-8,5337.349999999999
9.68854e-8,5311.15
1.0791699999999999e-7,5285.89
1.2046099999999998e-7,5261.57
1.3503099999999999e-7,5237.759999999999
1.51685e-7,5214.92
1.71114e-7,5192.67
1.9385099999999998e-7,5171.05
2.20539e-7,5150.12
2.51966e-7,5129.900000000001
2.8908900000000003e-7,5110.43
3.33089e-7,5091.74
3.86227e-7,5073.59
4.4974100000000003e-7,5056.26
5.27031e-7,5039.54
6.21535e-7,5023.469999999999
7.3921e-7,5007.900000000001
8.86633e-7,4992.860000000001
1.0721e-6,4978.43
1.55402e-6,4953.42
3.2653099999999997e-6,4912.3099999999995
8.06068e-6,4868.22
2.54263e-5,4791.419999999999
8.306080000000001e-5,4607.64
0.000169705,4373.11
0.000267575,4144.32
0.00037451400000000005,3928.29
0.000492155,3722.95
0.000618527,3533.02
0.000761548,3348.3
0.000913678,3180.3599999999997
0.0010712299999999998,3030.4700000000003
0.00124825,2885.95
0.00143726,2753.6299999999997
0.00165249,2624.86
0.0018934400000000001,2502.6000000000004
0.00216278,2386.91
0.0024514700000000003,2282.19
0.0027754900000000002,2182.66
0.0031248499999999998,2092.2000000000003
0.003541,2001.61
0.00399497,1918.98
0.00450029,1841.5600000000002
0.0050845000000000005,1766.72
0.00573001,1697.2
0.00648447,1629.14
0.007418,1558.6100000000001
0.00845044,1492.79
0.00973759,1422.57
0.011893899999999999,1320.1799999999998
0.0120878,1312.98
0.012125300000000002,1315.35
0.0121426,1322.17
0.0121498,1329.85
0.0121552,1341.3200000000002
0.0121588,1355.33
0.0121615,1373.28
0.0121633,1393.06
0.0121642,1407.86
0.0121651,1428.9
0.0121657,1451.48
0.012166399999999999,1483.44
0.012166900000000001,1512.3899999999999
0.0121673,1549.83
0.0121676,1585.0800000000002
0.012168000000000002,1623.3500000000001
0.012168300000000002,1682.29
0.012168600000000002,1735.94
0.0121689,1799.1699999999998
0.0121692,1873.56
0.0121695,1960.82
0.0121698,2062.85
0.0121701,2181.63
0.0121702,2271.2799999999997
0.0121704,2370.02
0.0121706,2478.63
0.012170799999999999,2597.73
0.012171000000000001,2752.5
0.012171300000000001,2924.07
0.0121715,3113.74
0.0121717,3322.58
0.0121719,3551.94
0.0121722,3802.69
0.012172400000000002,4075.97
0.0121726,4372.4800000000005
0.0121728,4693.33
0.0121731,5038.719999999999
0.0121733,5409.24
0.0121735,5804.78
0.0121737,6225.64
0.012174100000000002,6902.910000000001
0.012174400000000002,7632.7699999999995
0.0121748,8443.8
0.012175100000000001,9300.369999999999
0.0121756,10651.1
0.0121769,13864.7
0.012177400000000001,15195.7
0.0121779,16271.800000000001
0.0121782,16921.3
0.0121786,17561.5
0.012179,18029.8
0.0121793,18366.2
0.0121797,18562.2
0.01218,18614.5
0.0121803,18567.8
0.0121806,18388.8
0.012180999999999999,18095.2
0.012181200000000001,17767.0
0.012181599999999999,17252.8
0.0121819,16627.4
0.0121824,15697.099999999999
0.0121827,14859.1
0.0121833,13501.2
0.012184600000000002,9992.699999999999
0.0121851,8801.79
0.0121855,7873.64
0.0121858,7218.950000000001
0.0121861,6603.67
0.0121864,6029.82
0.0121867,5499.08
0.0121869,5123.45
0.0121871,4773.049999999999
0.012187300000000002,4447.29
0.012187600000000002,4145.88
0.0121878,3867.78
0.012188000000000001,3612.45
0.0121882,3378.73
0.0121885,3165.7099999999996
0.012188699999999998,2976.56
0.0121889,2804.96
0.0121891,2649.6400000000003
0.0121893,2509.54
0.0121896,2383.46
0.0121898,2270.3700000000003
0.012190000000000001,2169.15
0.0121902,2078.8799999999997
0.012190399999999999,1998.4299999999998
0.0121907,1927.01
0.012190900000000001,1853.0800000000002
0.0121912,1771.4
0.0121916,1703.9599999999998
0.0121919,1648.4399999999998
0.012192300000000001,1602.79
0.0121926,1565.3
0.012193099999999998,1525.43
0.0121935,1494.58
0.0121942,1460.5
0.0121949,1436.43
0.012195800000000001,1414.02
0.0121971,1391.99
0.0121987,1374.79
0.012200899999999999,1359.53
0.0122038,1346.23
0.0122092,1331.84
0.012218199999999999,1320.3400000000001
0.0122371,1311.0900000000001
0.012289099999999999,1303.7
0.0134441,1241.29
0.0138779,1210.85
0.0141699,1182.81
0.0143662,1156.32
0.0144879,1133.84
0.0145902,1108.5700000000002
0.0146745,1080.35
0.0147395,1051.11
0.014792000000000001,1019.86
0.0148224,997.1560000000001
0.0148556,966.929
0.014880500000000001,939.1709999999999
0.0149054,905.476
0.014922,878.68
0.0149386,847.3919999999999
0.0149552,810.384
0.014966600000000002,780.803
0.014978,746.945
0.014988999999999999,709.166
0.014999400000000001,668.3340000000001
0.0150063,637.6229999999999
0.0150132,603.644
0.0150194,569.87
0.0150257,532.667
0.0150319,491.62600000000003
0.0150366,458.089
0.0150416,419.231
0.0150468,375.85
0.0150519,329.396
0.015058199999999999,270.60499999999996
0.015062800000000001,226.20300000000003
0.0150655,201.68499999999997
0.015067200000000001,187.131
0.015068999999999999,173.858
0.0150701,165.982
0.0150712,159.117
0.0150721,154.78
0.015073000000000001,151.275
0.0150735,149.471
0.0150743,147.77800000000002
0.0150751,147.16400000000002
0.015075700000000001,147.513
0.0150763,148.648
0.015077,150.82500000000002
0.015077400000000001,153.18
0.0150779,156.221
0.0150784,160.01399999999998
0.015079,165.799
0.0150795,172.101
0.01508,179.61
0.015080499999999998,188.463
0.015081,198.797
0.0150816,210.779
0.015082100000000001,224.58900000000003
0.015082400000000001,234.913
0.0150828,246.20600000000002
0.0150831,258.55
0.015083500000000001,272.01399999999995
0.015083800000000001,286.692
0.015084100000000001,302.672
0.0150845,320.06899999999996
0.0150848,338.983
0.015085200000000002,359.549
0.015085500000000002,381.89099999999996
0.015086,413.21899999999994
0.0150864,448.03
0.015086900000000002,486.731
0.0150871,514.912
0.0150874,545.164
0.015087699999999999,577.6519999999999
0.015087999999999999,611.497
0.0150884,665.16
0.015088800000000001,724.65
0.0150891,767.8829999999999
0.0150894,814.251
0.0150897,864.009
0.01509,917.441
0.0150902,974.873
0.0150905,1036.6599999999999
0.0150908,1103.1599999999999
0.0150911,1174.81
0.015091300000000002,1252.0800000000002
0.0150916,1335.49
0.0150919,1425.6100000000001
0.0150922,1523.08
0.015092399999999999,1621.77
0.015092699999999999,1720.8600000000001
0.015092900000000001,1827.25
0.015093200000000001,1941.5500000000002
0.0150934,2064.46
0.0150936,2196.7400000000002
0.0150939,2339.18
0.0150941,2492.6499999999996
0.0150944,2656.6200000000003
0.015094600000000001,2831.77
0.0150948,3020.57
0.0150951,3224.16
0.0150953,3443.81
0.0150955,3680.88
0.0150958,3936.76
0.015096,4212.98
0.0150963,4503.389999999999
0.0150965,4807.91
0.015096700000000001,5135.349999999999
0.0150969,5487.39
0.0150972,5865.83
0.0150974,6272.509999999999
0.015097600000000001,6709.3
0.0150978,7178.16
0.015098,7660.36
0.0150983,8153.73
0.0150986,8954.74
0.0150989,9834.4
0.0150992,10798.300000000001
0.0150995,11852.7
0.015099800000000002,12950.0
0.015100100000000002,14111.400000000001
0.015100400000000002,15364.9
0.0151007,16715.8
0.015101,18166.100000000002
0.015101199999999999,19719.6
0.015101500000000002,21378.1
0.0151018,23143.600000000002
0.0151022,25663.8
0.015102599999999999,28372.0
0.015103,31583.600000000002
0.0151035,35576.7
0.015104,39819.6
0.0151046,45280.1
0.0151064,61255.8
0.0151071,67831.3
0.0151076,72059.1
0.0151082,76011.7
0.015108600000000002,78850.6
0.015109,80780.7
0.0151094,82351.1
0.0151098,83540.2
0.0151102,84464.0
0.015110600000000002,84757.3
0.0151111,84572.7
0.0151115,83934.4
0.015111900000000001,82861.3
0.0151123,81378.79999999999
0.0151127,79520.0
0.0151132,76238.3
0.0151138,72380.6
0.0151144,67876.4
0.0151153,60818.1
0.0151165,50919.7
0.015117100000000001,46592.200000000004
0.0151176,42472.700000000004
0.0151182,38611.3
0.0151186,35903.1
0.015119,33367.200000000004
0.015119400000000002,31006.0
0.015119800000000001,28820.199999999997
0.0151203,26805.7
0.0151206,25261.7
0.015121,23559.0
0.0151214,22005.1
0.015121800000000001,20590.4
0.015122199999999999,19304.9
0.015122700000000001,18138.2
0.0151231,17080.2
0.015123500000000002,16121.0
0.015123800000000001,15343.800000000001
0.0151243,14420.599999999999
0.0151248,13594.800000000001
0.0151253,12854.8
0.0151258,12190.0
0.015126200000000001,11591.1
0.0151267,11049.4
0.0151272,10558.300000000001
0.0151278,9971.36
0.015128500000000001,9450.64
0.0151291,8968.15
0.0151298,8521.08
0.0151305,8120.91
0.015131200000000001,7760.7
0.0151319,7434.78
0.015132900000000001,7000.3
0.015134000000000002,6620.2300000000005
0.015135000000000001,6285.09
0.0151361,5987.41
0.015137100000000002,5721.37
0.0151385,5407.78
0.0151399,5133.33
0.015141100000000001,4908.36
0.0151424,4706.83
0.0151443,4441.139999999999
0.0151463,4211.610000000001
0.0151482,4011.4599999999996
0.0151501,3835.52
0.0151524,3648.33
0.0151548,3485.36
0.0151571,3342.24
0.015159400000000002,3215.6099999999997
0.0151625,3067.92
0.015166,2926.8900000000003
0.0151694,2805.37
0.015172900000000001,2699.63
0.015176400000000001,2606.84
0.015181199999999999,2494.59
0.015186,2398.8999999999996
0.0151909,2316.33
0.015195700000000001,2244.3300000000004
0.0152026,2156.24
0.0152095,2081.89
0.015216499999999999,2018.3399999999997
0.0152268,1938.6200000000001
0.0152372,1873.18
0.0152476,1818.52
0.0152586,1769.3700000000001
0.0152738,1713.43
0.0152897,1665.71
0.0153063,1624.6499999999999
0.015331200000000001,1575.19
0.0153478,1548.22
0.015381,1504.5
0.015419700000000001,1465.6299999999999
0.0154695,1428.0
0.0155192,1399.45
0.0155752,1374.43
0.015663,1344.93
0.0157819,1316.3
0.0159478,1288.2800000000002
0.0161607,1262.93
0.0164682,1236.5900000000001
0.0169305,1207.3799999999999
0.0177575,1167.24
0.0203464,1059.02
0.0210466,1024.07
0.021504699999999998,995.4499999999999
0.0218206,969.89
0.022047,945.934
0.0222234,921.3900000000001
0.022362899999999998,895.837
0.0224708,869.884
0.0225524,844.6590000000001
0.0226156,820.2479999999999
0.0226577,800.644
0.0226999,777.494
0.022742000000000002,749.666
0.022773599999999998,724.755
0.0228052,695.298
0.0228354,661.563
0.0228539,637.617
0.0228723,610.484
0.022890700000000003,579.499
0.022904499999999998,553.226
0.022918400000000002,523.867
0.0229322,490.88599999999997
0.0229414,466.577
0.022950599999999998,440.16700000000003
0.022959800000000002,411.447
0.022969,380.137
0.022976899999999998,351.056
0.0229835,325.15299999999996
0.0229901,297.693
0.0229967,268.693
0.0230044,232.815
0.0230155,179.013
0.0230221,147.5
0.0230255,131.585
0.0230281,120.292
0.0230307,109.80700000000002
0.0230327,102.516
0.023034400000000003,96.9753
0.023035999999999997,92.14399999999999
0.0230371,89.3869
0.0230383,87.0584
0.023039399999999998,85.2132
0.023040500000000002,83.9136
0.023041700000000002,83.2096
0.0230421,83.14399999999999
0.0230429,83.2888
0.0230437,83.8284
0.0230444,84.72409999999999
0.023045100000000002,86.0288
0.0230459,87.7767
0.0230466,90.0043
0.0230474,92.7525
0.023047900000000003,95.27749999999999
0.023048600000000002,98.60979999999999
0.0230493,102.45200000000001
0.0230499,106.843
0.0230506,111.825
0.0230512,117.44300000000001
0.0230519,123.746
0.0230525,130.785
0.0230532,138.62099999999998
0.023053900000000002,147.315
0.023054500000000002,156.935
0.0230552,167.555
0.0230558,177.733
0.0230565,192.131
0.0230572,208.134
0.023058000000000002,225.892
0.0230587,245.57500000000002
0.023059500000000004,267.365
0.023060200000000003,289.799
0.023060800000000003,314.437
0.023061500000000002,341.493
0.0230622,371.197
0.0230629,403.812
0.023063600000000004,439.62399999999997
0.023064300000000003,478.95899999999995
0.023065000000000002,522.1669999999999
0.023065699999999998,569.675
0.023066399999999997,621.919
0.0230671,679.431
0.0230678,742.788
0.0230684,812.667
0.0230689,863.237
0.0230694,917.2890000000001
0.023069799999999998,975.0930000000001
0.023070300000000002,1036.95
0.0230707,1100.74
0.0230714,1200.75
0.023072,1311.06
0.023072699999999998,1432.89
0.023073100000000003,1521.22
0.0230735,1615.8
0.023073899999999998,1717.13
0.023074499999999998,1867.1100000000001
0.0230751,2032.3500000000001
0.0230757,2214.76
0.0230763,2416.4900000000002
0.0230767,2562.94
0.023077,2719.85
0.023077399999999998,2891.18
0.023077800000000002,3075.2799999999997
0.0230782,3273.3599999999997
0.023078599999999998,3486.57
0.023079000000000002,3716.37
0.0230794,3964.12
0.0230798,4231.5199999999995
0.0230802,4520.18
0.0230806,4810.679999999999
0.0230809,5123.0
0.0230813,5459.06
0.0230817,5820.610000000001
0.023082,6209.92
0.0230824,6628.9
0.0230828,7080.0
0.0230832,7565.44
0.0230836,8244.61
0.0230841,8990.34
0.023084600000000004,9808.72
0.023085,10705.6
0.0230855,11687.300000000001
0.023086000000000002,12759.7
0.023086500000000003,13929.1
0.0230869,15200.400000000001
0.023087399999999998,16579.9
0.0230879,18070.9
0.0230882,19128.9
0.023088700000000004,21009.2
0.023089300000000004,23036.500000000004
0.0230898,25211.0
0.0230903,27529.3
0.023090799999999998,29986.8
0.0230916,33910.6
0.0230924,38075.9
0.0230938,45961.5
0.023095300000000003,53869.9
0.023096199999999997,58823.5
0.023097,62751.0
0.0230976,65083.9
0.023098100000000003,67143.7
0.023098800000000003,69258.0
0.023099400000000003,70707.1
0.023100000000000002,71715.2
0.0231005,72191.59999999999
0.0231011,72373.59999999999
0.0231017,72099.8
0.0231023,71384.4
0.023102900000000003,70251.5
0.023103699999999998,68356.9
0.023104399999999997,65967.4
0.0231052,63168.3
0.0231059,60052.6
0.023107000000000003,54988.9
0.0231093,44272.799999999996
0.0231101,40480.7
0.023111000000000003,36906.5
0.0231118,33591.799999999996
0.023112499999999998,31105.7
0.0231133,28474.499999999996
0.023113800000000004,26860.6
0.0231143,25356.5
0.0231148,23957.7
0.0231154,22660.100000000002
0.023115899999999998,21458.2
0.023116400000000002,20346.4
0.023117000000000002,19318.5
0.0231177,17921.5
0.023118500000000004,16681.1
0.0231193,15578.4
0.0231201,14596.6
0.023120599999999998,14001.6
0.0231215,13136.699999999999
0.023122300000000002,12366.3
0.023123200000000003,11677.4
0.023124,11059.000000000002
0.0231249,10501.5
0.0231257,9997.14
0.0231265,9538.970000000001
0.0231277,8968.08
0.023128700000000002,8538.439999999999
0.02313,8027.4400000000005
0.0231313,7576.28
0.0231326,7175.43
0.023134000000000002,6817.160000000001
0.0231353,6495.320000000001
0.0231366,6204.780000000001
0.0231379,5941.37
0.0231399,5589.58
0.0231419,5281.570000000001
0.0231438,5009.88
0.023145799999999998,4768.67
0.0231478,4553.2300000000005
0.02315,4335.47
0.023152400000000004,4130.78
0.0231548,3948.57
0.0231579,3734.76
