E(MeV),xs(mb)
1.0e-11,219376.00000000003
1.03223e-11,215926.99999999997
1.06549e-11,212533.0
1.0998399999999998e-11,209192.0
1.13527e-11,205904.0
1.1718599999999999e-11,202667.00000000003
1.2096199999999998e-11,199482.0
1.24861e-11,196346.0
1.2888399999999999e-11,193261.0
1.3303799999999998e-11,190223.0
1.37325e-11,187234.0
1.41751e-11,184291.0
1.4631799999999997e-11,181395.0
1.51034e-11,178544.0
1.5590099999999998e-11,175739.0
1.6092599999999998e-11,172977.0
1.66111e-11,170260.0
1.71465e-11,167584.0
1.7699e-11,164952.0
1.8269399999999998e-11,162360.0
1.88581e-11,159810.0
1.94659e-11,157299.0
2.00931e-11,154829.0
2.0740699999999998e-11,152397.0
2.1408999999999998e-11,150003.0
2.2099099999999997e-11,147647.0
2.28111e-11,145329.0
2.3546399999999998e-11,143046.0
2.4305099999999997e-11,140801.0
2.50884e-11,138590.0
2.5896799999999997e-11,136414.0
2.67315e-11,134272.0
2.75928e-11,132165.0
2.8482199999999998e-11,130090.0
2.93999e-11,128048.0
3.0347499999999995e-11,126038.0
3.13253e-11,124061.0
3.2335e-11,122113.99999999999
3.33769e-11,120198.0
3.44526e-11,118312.0
3.55627e-11,116456.0
3.67089e-11,114629.0
3.7891799999999997e-11,112830.99999999999
3.9113e-11,111061.00000000001
4.0373400000000003e-11,109320.0
4.1674599999999996e-11,107606.0
4.3017399999999996e-11,105919.00000000001
4.440389999999999e-11,104258.0
4.58347e-11,102624.0
4.7311899999999994e-11,101016.0
4.883639999999999e-11,99432.7
5.0410399999999995e-11,97874.59999999999
5.20348e-11,96341.3
5.37119e-11,94832.0
5.54426e-11,93346.90000000001
5.7229499999999995e-11,91884.9
5.907359999999999e-11,90446.3
6.09775e-11,89030.1
6.29424e-11,87636.7
6.497099999999999e-11,86265.0
6.70645e-11,84915.2
6.9226e-11,83586.6
7.145659999999999e-11,82279.2
7.37596e-11,80992.3
7.61364e-11,79725.90000000001
7.85902e-11,78479.40000000001
8.11227e-11,77252.90000000001
8.37372e-11,76045.5
8.643549999999999e-11,74857.5
8.922119999999998e-11,73688.1
9.209619999999999e-11,72537.4
9.506439999999999e-11,71404.7
9.81277e-11,70290.2
1.01291e-10,69193.1
1.04554e-10,68113.8
1.07924e-10,67051.1
1.11402e-10,66005.8
1.1499200000000001e-10,64976.6
1.1869700000000001e-10,63964.2
1.22523e-10,62967.399999999994
1.26471e-10,61986.9
1.30547e-10,61021.6
1.34754e-10,60071.899999999994
1.3909700000000002e-10,59137.00000000001
1.43579e-10,58217.299999999996
1.48207e-10,57311.9
1.52982e-10,56421.200000000004
1.57913e-10,55544.399999999994
1.6300100000000001e-10,54681.9
1.68254e-10,53832.700000000004
1.73676e-10,52997.4
1.79274e-10,52175.1
1.8505000000000002e-10,51366.2
1.91014e-10,50570.00000000001
1.97169e-10,49786.6
2.03524e-10,49015.6
2.1008200000000003e-10,48257.0
2.16853e-10,47510.399999999994
2.2384e-10,46775.9
2.31055e-10,46052.9
2.385e-10,45341.7
2.46187e-10,44641.6
2.5412e-10,43953.0
2.6231e-10,43275.1
2.70762e-10,42608.4
2.7948900000000003e-10,41952.100000000006
2.88494e-10,41306.5
2.9779300000000004e-10,40671.1
3.07388e-10,40046.0
3.1729500000000004e-10,39430.8
3.27519e-10,38825.6
3.38075e-10,38230.0
3.4896900000000003e-10,37644.1
3.6021600000000004e-10,37067.5
3.7182300000000004e-10,36500.3
3.83807e-10,35942.1
3.96174e-10,35393.0
4.08943e-10,34852.7
4.2212e-10,34321.1
4.3572499999999996e-10,33798.0
4.4976500000000005e-10,33283.5
4.6426100000000007e-10,32777.1
4.79221e-10,32279.100000000002
4.94666e-10,31788.9
5.10605e-10,31306.8
5.270620000000001e-10,30832.4
5.440450000000001e-10,30365.8
5.6158e-10,29906.600000000002
5.796750000000001e-10,29454.899999999998
5.98358e-10,29010.5
6.176389999999999e-10,28573.300000000003
6.37545e-10,28143.2
6.58089e-10,27720.1
6.79298e-10,27303.8
7.01188e-10,26894.399999999998
7.237860000000001e-10,26491.5
7.47109e-10,26095.199999999997
7.71188e-10,25705.300000000003
7.960380000000001e-10,25321.8
8.21693e-10,24944.5
8.48171e-10,24573.399999999998
8.75507e-10,24208.3
9.037190000000002e-10,23849.100000000002
9.32845e-10,23495.8
9.62904e-10,23148.300000000003
9.93937e-10,22806.4
1.0259700000000001e-9,22470.1
1.05903e-9,22139.199999999997
1.09316e-9,21813.8
1.12839e-9,21493.699999999997
1.16475e-9,21178.8
1.2022900000000002e-9,20869.0
1.2410300000000002e-9,20564.399999999998
1.28103e-9,20264.600000000002
1.3223100000000002e-9,19969.8
1.36492e-9,19679.8
1.4089000000000002e-9,19394.5
1.45739e-9,19095.4
1.5075400000000002e-9,18801.399999999998
1.55941e-9,18512.6
1.61307e-9,18228.8
1.66858e-9,17949.9
1.726e-9,17675.9
1.7853900000000002e-9,17406.7
1.8468300000000001e-9,17142.1
1.91038e-9,16882.2
1.9761200000000004e-9,16626.8
2.04412e-9,16375.800000000001
2.1144599999999997e-9,16129.199999999999
2.1872200000000002e-9,15886.800000000001
2.26249e-9,15648.7
2.3403400000000002e-9,15414.699999999999
2.42088e-9,15184.800000000001
2.50418e-9,14958.9
2.59036e-9,14736.9
2.6794900000000002e-9,14518.7
2.7717000000000003e-9,14304.4
2.86707e-9,14093.7
2.9657300000000003e-9,13886.7
3.0677900000000002e-9,13683.300000000001
3.1733500000000004e-9,13483.400000000001
3.2825500000000004e-9,13287.0
3.39551e-9,13093.999999999998
3.51235e-9,12904.3
3.6332200000000004e-9,12717.9
3.75824e-9,12534.7
3.88757e-9,12354.6
4.021340000000001e-9,12177.7
4.159720000000001e-9,12003.900000000001
4.302860000000001e-9,11833.0
4.45093e-9,11665.099999999999
4.604090000000001e-9,11500.0
4.76252e-9,11337.900000000001
4.92641e-9,11178.5
5.095930000000001e-9,11021.8
5.27129e-9,10867.9
5.452680000000001e-9,10716.6
5.640310000000001e-9,10567.9
5.8344e-9,10421.7
6.04796e-9,10269.2
6.269300000000001e-9,10119.400000000001
6.49878e-9,9972.42
6.7366300000000005e-9,9828.09
6.98321e-9,9686.37
7.2387800000000005e-9,9547.25
7.50374e-9,9410.640000000001
7.77837e-9,9276.54
8.06308e-9,9144.859999999999
8.35818e-9,9015.58
8.664110000000001e-9,8888.65
8.981210000000002e-9,8764.03
9.309950000000001e-9,8641.66
9.65068e-9,8521.53
1.00039e-8,8403.57
1.037e-8,8287.76
1.07496e-8,8174.03
1.1143000000000001e-8,8062.379999999999
1.15509e-8,7952.75
1.19737e-8,7845.11
1.24119e-8,7739.4
1.2866200000000002e-8,7635.63
1.33371e-8,7533.719999999999
1.3825300000000001e-8,7433.67
1.43313e-8,7335.410000000001
1.48558e-8,7238.95
1.53996e-8,7144.219999999999
1.5997e-8,7045.78
1.66176e-8,6949.23
1.72623e-8,6854.53
1.7931999999999998e-8,6761.63
1.86276e-8,6670.51
1.93503e-8,6581.14
2.0101e-8,6493.47
2.0880800000000003e-8,6407.48
2.1690900000000003e-8,6323.13
2.2532399999999998e-8,6240.389999999999
2.3406500000000002e-8,6159.23
2.43146e-8,6079.61
2.52522e-8,6001.98
2.5299999999999998e-8,5998.14
2.6281500000000003e-8,5921.599999999999
2.73011e-8,5846.5199999999995
2.83603e-8,5772.87
2.94605e-8,5700.62
3.0668300000000003e-8,5625.849999999999
3.1925400000000005e-8,5552.59
3.32342e-8,5480.79
3.45965e-8,5410.45
3.60149e-8,5341.51
3.74912e-8,5273.96
3.90282e-8,5207.76
4.0628000000000005e-8,5142.9
4.22936e-8,5079.33
4.4027300000000004e-8,5017.05
4.58322e-8,4956.0
4.7710999999999996e-8,4896.18
4.96669e-8,4837.5599999999995
5.18124e-8,4777.12
5.40506e-8,4717.95
5.63854e-8,4660.04
5.88211e-8,4603.34
6.136210000000001e-8,4547.84
6.40127e-8,4493.509999999999
6.67779e-8,4440.33
6.96626e-8,4388.27
7.267179999999999e-8,4337.31
7.5811e-8,4287.42
7.90859e-8,4238.59
8.26766e-8,4188.42
8.643079999999999e-8,4139.36
9.035510000000001e-8,4091.38
9.44579e-8,4044.4500000000003
9.874660000000001e-8,3998.56
1.0322999999999999e-7,3953.6699999999996
1.0791699999999999e-7,3909.78
1.1281799999999998e-7,3866.86
1.1818999999999999e-7,3822.91
1.23818e-7,3779.9700000000003
1.29714e-7,3738.03
1.35891e-7,3697.0499999999997
1.4236200000000001e-7,3657.0299999999997
1.4914099999999997e-7,3617.93
1.5624299999999998e-7,3579.7400000000002
1.64029e-7,3540.76
1.72204e-7,3502.71
1.80785e-7,3465.58
1.8979499999999999e-7,3429.3300000000004
1.99254e-7,3393.96
2.0918399999999998e-7,3359.44
2.1960799999999996e-7,3325.7400000000002
2.3104099999999998e-7,3291.4500000000003
2.43069e-7,3258.02
2.55722e-7,3225.43
2.69035e-7,3193.65
2.8303999999999997e-7,3162.68
2.98406e-7,3131.2400000000002
3.1460400000000003e-7,3100.64
3.31683e-7,3070.83
3.49688e-7,3041.78
3.68672e-7,3013.49
3.89508e-7,2984.85
4.1152199999999997e-7,2956.98
4.3478000000000003e-7,2929.86
4.5935199999999994e-7,2903.48
4.863389999999999e-7,2876.85
5.149149999999999e-7,2850.9500000000003
5.45166e-7,2825.7799999999997
5.77198e-7,2801.32
6.12404e-7,2776.68
6.497569999999999e-7,2752.7599999999998
6.893889999999999e-7,2729.52
7.32984e-7,2706.1600000000003
7.793399999999999e-7,2683.49
8.286239999999999e-7,2661.4900000000002
8.82891e-7,2639.43
9.40713e-7,2618.05
1.00232e-6,2597.3199999999997
1.0796099999999999e-6,2573.89
1.19084e-6,2544.2
1.3414699999999998e-6,2510.0699999999997
1.56498e-6,2468.6
1.9041e-6,2420.21
2.41614e-6,2367.01
3.10914e-6,2316.71
4.08576e-6,2268.3399999999997
5.40703e-6,2224.07
7.307719999999999e-6,2181.54
1.0086e-5,2140.29
1.42159e-5,2099.7599999999998
2.06072e-5,2057.3199999999997
3.07193e-5,2010.52
4.77614e-5,1952.18
7.6903e-5,1873.23
0.000125572,1760.6699999999998
0.00021234600000000003,1578.8
0.00045239700000000005,1093.44
0.000575051,836.9830000000001
0.000737067,494.36400000000003
0.0007814450000000001,403.116
0.000805148,356.029
0.0008264780000000001,317.022
0.0008478490000000001,279.818
0.000865291,251.22
0.0008774990000000001,232.234
0.000888632,215.89299999999997
0.000901807,197.934
0.000911632,185.641
0.0009214570000000001,174.449
0.0009296450000000001,166.071
0.000937833,158.743
0.0009439740000000001,154.06
0.0009501150000000002,150.257
0.0009560510000000001,147.691
0.0009597360000000001,146.866
0.0009615780000000002,146.75400000000002
0.000964853,147.228
0.0009673090000000001,148.359
0.0009691520000000001,149.833
0.0009711990000000001,152.363
0.0009727340000000001,155.12699999999998
0.000974269,158.957
0.000975293,162.321
0.000976316,166.557
0.00097716,170.911
0.0009780049999999999,176.29
0.000978849,183.03
0.000979412,188.503
0.000979975,194.97500000000002
0.000980538,202.695
0.000980986,209.95
0.000981485,219.49200000000002
0.000981817,226.902
0.00098215,235.332
0.0009824830000000001,244.985
0.0009828150000000002,256.115
0.000983148,269.04699999999997
0.0009833970000000002,280.182
0.00098369,295.171
0.0009839,307.423
0.00098411,321.192
0.00098432,336.757
0.000984529,354.476
0.000984739,374.80699999999996
0.000984897,392.128
0.0009850540000000002,411.58299999999997
0.000985159,425.94000000000005
0.000985323,450.974
0.000985445,472.21900000000005
0.000985568,495.99
0.000985691,522.743
0.000985814,553.0350000000001
0.000985937,587.552
0.000986019,613.313
0.000986101,641.6070000000001
0.000986182,672.764
0.0009862640000000002,707.155
0.0009863460000000001,745.203
0.0009864280000000001,787.3820000000001
0.00098652,840.434
0.000986597,889.7640000000001
0.000986674,944.326
0.00098675,1004.72
0.000986827,1071.61
0.000986904,1145.69
0.000986981,1227.72
0.0009870570000000002,1318.53
0.000987134,1418.97
0.000987211,1529.9499999999998
0.000987288,1652.42
0.000987349,1759.32
0.000987411,1874.69
0.000987472,1999.06
0.000987533,2132.91
0.000987595,2276.7599999999998
0.000987656,2431.08
0.0009877380000000002,2653.94
0.00098782,2897.2400000000002
0.0009879020000000001,3161.89
0.0009879720000000002,3407.85
0.000988062,3741.8900000000003
0.000988151,4102.96
0.00098824,4491.06
0.000988329,4905.75
0.000988418,5346.08
0.0009885400000000002,5992.68
0.000988663,6679.43
0.000988827,7643.49
0.000989237,10124.5
0.0009894,11054.2
0.000989523,11691.800000000001
0.000989646,12260.0
0.0009897690000000002,12743.500000000002
0.000989892,13128.599999999999
0.0009899730000000001,13325.1
0.0009900800000000002,13503.7
0.000990195,13594.900000000001
0.0009902350000000001,13601.099999999999
0.0009903169999999999,13572.900000000001
0.0009904400000000002,13428.7
0.0009905340000000002,13237.8
0.0009906280000000001,12980.6
0.000990727,12646.5
0.000990825,12251.300000000001
0.000990923,11802.1
0.000991021,11306.7
0.000991193,10353.6
0.0009914350000000001,8906.37
0.0009917090000000001,7246.15
0.000991832,6534.28
0.000991954,5863.28
0.000992061,5303.55
0.000992169,4779.15
0.000992249,4410.52
0.000992337,4031.8399999999997
0.0009924060000000001,3753.99
0.000992476,3492.36
0.000992545,3246.81
0.0009926140000000002,3017.03
0.000992683,2802.64
0.000992752,2603.16
0.000992821,2418.0299999999997
0.000992902,2219.35
0.000992971,2063.1400000000003
0.0009930400000000002,1919.19
0.000993109,1786.7900000000002
0.000993178,1665.22
0.000993247,1553.77
0.0009933160000000002,1451.7199999999998
0.000993385,1358.3899999999999
0.0009934540000000002,1273.11
0.000993523,1195.24
0.000993592,1124.1699999999998
0.000993659,1061.6200000000001
0.0009937250000000002,1004.3599999999999
0.000993792,951.935
0.000993859,903.917
0.0009939249999999999,859.915
0.0009939920000000002,819.566
0.0009940910000000001,765.165
0.000994191,717.2189999999999
0.000994291,674.84
0.000994391,637.26
0.0009944910000000001,603.8149999999999
0.00099459,573.935
0.0009947110000000001,541.976
0.0009948180000000002,516.616
0.0009949260000000001,493.831
0.000995033,473.266
0.000995194,445.937
0.000995355,422.126
0.000995517,401.20300000000003
0.000995678,382.67699999999996
0.000995839,366.163
0.0009960540000000001,346.75600000000003
0.0009962690000000001,329.825
0.000996504,313.616
0.00099676,298.277
0.000997016,284.897
0.0009972720000000002,273.146
0.000997528,262.76099999999997
0.000997784,253.53500000000003
0.0009981669999999999,241.506
0.000998577,230.63899999999998
0.0009990370000000001,220.34600000000003
0.000999497,211.68999999999997
0.000999958,204.349
0.00100026,200.06499999999997
0.00100088,192.701
0.00100142,187.27
0.00100197,182.67
0.00100269,177.569
0.00100342,173.406
0.0010045100000000001,168.505
0.0010056000000000002,164.81900000000002
0.0010066900000000002,162.039
0.00100814,159.383
0.00100959,157.621
0.0010117700000000002,156.18
0.00101395,155.771
0.00101628,156.155
0.0010186,157.182
0.00102151,159.171
0.0010244100000000001,161.802
0.00102848,166.381
0.0010325500000000001,171.876
0.00103674,178.42
0.00104093,185.823
0.00104528,194.417
0.0010496300000000002,203.938
0.00105461,216.003
0.00105958,229.337
0.00106456,244.01700000000002
0.00106954,260.11
0.00107451,277.691
0.00107949,296.84499999999997
0.00108446,317.661
0.00108944,340.23699999999997
0.00109441,364.681
0.0010993900000000002,391.104
0.00110436,419.63100000000003
0.0011093400000000001,450.391
0.00111432,483.528
0.00111929,519.194
0.0011242700000000001,557.552
0.00112924,598.779
0.00113546,654.841
0.00114168,715.8439999999999
0.00114666,768.719
0.00115163,825.4440000000001
0.00115661,886.288
0.0011615800000000002,951.5409999999999
0.00116656,1021.52
0.00117153,1096.56
0.00117651,1177.0400000000002
0.0011814899999999999,1263.3600000000001
0.00118646,1355.96
0.00119144,1455.32
0.00119641,1561.96
0.0012013899999999999,1676.45
0.00120636,1799.43
0.0012113400000000002,1931.57
0.00121681,2088.11
0.00122228,2257.92
0.00122726,2424.87
0.0012322400000000001,2604.86
0.00123671,2779.62
0.00124119,2969.16
0.0012456700000000002,3172.1
0.0012501500000000002,3389.4
0.0012546200000000001,3622.27
0.0012591000000000002,3872.0699999999997
0.00126358,4140.33
0.0012680599999999999,4428.759999999999
0.00127254,4739.24
0.00127701,5073.8099999999995
0.0012814900000000001,5434.72
0.00128597,5824.4800000000005
0.00129045,6245.91
0.00129493,6702.29
0.0012994,7197.339999999999
0.0013038799999999999,7735.31
0.00130836,8320.96
0.00131284,8959.619999999999
0.00131732,9657.32
0.00132179,10420.9
0.00132627,11258.300000000001
0.0013307500000000001,12178.800000000001
0.00133523,13193.5
0.00133971,14315.0
0.00134418,15558.199999999999
0.00134717,16462.600000000002
0.00135165,17943.5
0.00135538,19308.8
0.00135911,20814.300000000003
0.0013628400000000001,22474.4
0.0013665700000000001,24310.100000000002
0.00137031,26346.9
0.00137404,28618.5
0.00137777,31142.9
0.0013802600000000001,32991.5
0.0013827400000000001,34991.4
0.00138523,37156.4
0.00138772,39504.8
0.00139021,42057.3
0.0013927499999999999,44898.9
0.00139533,48065.5
0.00139792,51534.4
0.00140051,55357.9
0.00140299,59407.1
0.0014053800000000001,63683.1
0.00140777,68389.6
0.0014101600000000001,73583.7
0.00141255,79331.9
0.00141434,84052.79999999999
0.00141613,89166.2
0.00141792,94714.6
0.00141971,100746.0
0.0014215,107312.99999999999
0.00142329,114480.0
0.00142509,122313.99999999999
0.00142688,130895.99999999999
0.0014286700000000002,140315.0
0.0014304600000000002,150676.0
0.0014322500000000001,162096.0
0.00143404,174708.0
0.00143583,188667.0
0.00143762,204145.99999999997
0.0014394199999999998,221342.00000000003
0.00144111,239360.99999999997
0.00144275,258705.0
0.00144439,280090.0
0.00144603,303736.0
0.00144767,329855.0
0.00144932,358745.0
0.00145096,390781.0
0.0014525999999999999,426145.0
0.00145424,464959.0
0.00145588,507399.0
0.00145753,553516.0
0.0014590900000000001,600845.0
0.0014611799999999999,668368.0
0.00146688,862628.9999999999
0.00146837,909587.9999999999
0.00146987,951482.0
0.0014713600000000001,986375.9999999999
0.00147235,1.00488e6
0.00147335,1.0190600000000001e6
0.00147433,1.02853e6
0.0014753099999999999,1.03318e6
0.0014758,1.03372e6
0.00147685,1.03085e6
0.0014779,1.02267e6
0.00147895,1.00952e6
0.00148,991812.0
0.00148157,957943.0
0.00148315,917379.0
0.0014854400000000002,850745.0
0.00149041,698821.0
0.0014922800000000001,645207.0
0.00149415,595174.0
0.00149554,560402.0
0.00149693,527914.0
0.00149833,497700.00000000006
0.00149972,469699.00000000006
0.00150111,443818.99999999994
0.0015025,419948.00000000006
0.0015039,397962.0
0.00150529,377734.0
0.00150668,359139.0
0.0015080800000000002,342054.0
0.0015101700000000001,319005.0
0.0015122599999999999,298732.0
0.00151435,280913.0
0.00151644,265266.0
0.00151853,251542.99999999997
0.00152062,239534.0
0.00152271,229056.00000000003
0.0015248,219955.0
0.00152688,212096.99999999997
0.00152897,205391.0
0.00153105,199728.0
0.0015331300000000002,195041.0
0.0015359,190167.0
0.0015386800000000002,186740.0
0.00154155,184629.0
0.00154442,183975.0
0.00154701,184640.0
0.0015496000000000002,186428.0
0.00155218,189383.0
0.00155477,193554.0
0.00155692,198003.0
0.00155908,203386.99999999997
0.0015612299999999998,209762.0
0.00156339,217197.0
0.00156554,225769.99999999997
0.0015677000000000002,235571.00000000003
0.00156985,246700.0
0.00157201,259269.99999999997
0.00157416,273403.0
0.00157632,289227.0
0.00157847,306876.0
0.00158063,326485.0
0.0015827800000000002,348176.0
0.00158494,372054.0
0.00158709,398185.0
0.0015892500000000002,426579.0
0.00159151,458744.0
0.00159453,504959.0
0.0016026100000000002,636879.0
0.0016051899999999998,675872.0
0.00160713,701843.0
0.00160907,723680.0
0.0016110100000000002,740477.0
0.00161257,749837.0
0.00161439,755729.0
0.00161531,756526.0
0.0016167800000000002,754764.0
0.00161825,749386.0
0.00162021,736947.0
0.0016221699999999998,719054.0
0.00162391,699361.0
0.00162617,669660.0
0.00162918,625275.0
0.00163666,509564.00000000006
0.00163953,467664.0
0.0016424,428671.0
0.00164456,401537.0
0.00164671,376258.0
0.0016488700000000002,352809.0
0.00165102,331124.0
0.0016531800000000002,311113.0
0.00165533,292671.0
0.00165749,275686.0
0.00165964,260046.0
0.0016618,245641.0
0.00166395,232368.0
0.00166682,216261.0
0.0016697,201778.0
0.00167257,188731.0
0.00167544,176950.0
0.00167832,166289.0
0.00168119,156618.0
0.00168406,147823.0
0.00168694,139806.0
0.0016898100000000001,132482.0
0.00169268,125773.0
0.00169556,119615.0
0.00169987,111286.0
0.00170418,103902.0
0.00170849,97324.0
0.0017128000000000002,91439.7
0.00171711,86154.0
0.00172142,81387.5
0.00172573,77074.1
0.0017309,72420.3
0.0017365,67938.0
0.0017421000000000001,63921.700000000004
0.00174763,60371.0
0.0017531699999999999,57173.9
0.00175855,54356.0
0.00176394,51795.5
0.00176969,49309.200000000004
0.0017754300000000002,47040.3
0.00178118,44967.3
0.0017898,42179.9
0.00179842,39711.2
0.00180704,37524.6
0.0018156600000000002,35566.6
0.00182428,33813.9
0.0018329,32230.0
0.00184439,30350.5
0.00185589,28693.6
0.00186738,27224.0
0.0018788700000000001,25913.300000000003
0.00189036,24738.4
0.0019018600000000002,23680.4
0.00191335,22724.899999999998
0.0019248400000000001,21857.4
0.00194208,20701.0
0.00195789,19759.3
0.001978,18713.7
0.002,17724.0
0.00202038,16860.4
0.00204193,16049.0
0.0020634800000000003,15327.1
