E(MeV),xs(mb)
1.0e-11,54807.7
1.03223e-11,53953.3
1.06549e-11,53112.899999999994
1.0998399999999998e-11,52285.5
1.13527e-11,51471.600000000006
1.1718599999999999e-11,50670.299999999996
1.2096199999999998e-11,49882.0
1.24861e-11,49105.99999999999
1.2888399999999999e-11,48342.7
1.3303799999999998e-11,47591.200000000004
1.37325e-11,46851.9
1.41751e-11,46124.200000000004
1.4631799999999997e-11,45408.299999999996
1.51034e-11,44703.5
1.5590099999999998e-11,44010.3
1.6092599999999998e-11,43327.9
1.66111e-11,42656.6
1.71465e-11,41995.8
1.7699e-11,41345.799999999996
1.8269399999999998e-11,40706.0
1.88581e-11,40076.6
1.94659e-11,39457.1
2.00931e-11,38847.7
2.0740699999999998e-11,38247.8
2.1408999999999998e-11,37657.799999999996
2.2099099999999997e-11,37077.1
2.28111e-11,36505.8
2.3546399999999998e-11,35943.6
2.4305099999999997e-11,35390.5
2.50884e-11,34846.2
2.5896799999999997e-11,34310.8
2.67315e-11,33783.8
2.75928e-11,33265.5
2.8482199999999998e-11,32755.5
2.93999e-11,32253.699999999997
3.0347499999999995e-11,31760.0
3.13253e-11,31274.3
3.2335e-11,30796.399999999998
3.33769e-11,30326.300000000003
3.44526e-11,29863.8
3.55627e-11,29408.8
3.67089e-11,28961.100000000002
3.7891799999999997e-11,28520.8
3.9113e-11,28087.6
4.0373400000000003e-11,27661.5
4.1674599999999996e-11,27242.199999999997
4.3017399999999996e-11,26829.9
4.440389999999999e-11,26424.2
4.58347e-11,26025.2
4.7311899999999994e-11,25632.7
4.883639999999999e-11,25246.6
5.0410399999999995e-11,24866.899999999998
5.20348e-11,24493.399999999998
5.37119e-11,24126.0
5.54426e-11,23764.699999999997
5.7229499999999995e-11,23409.300000000003
5.907359999999999e-11,23059.8
6.09775e-11,22716.0
6.29424e-11,22378.0
6.497099999999999e-11,22045.499999999996
6.70645e-11,21718.5
6.9226e-11,21397.0
7.145659999999999e-11,21080.800000000003
7.37596e-11,20769.899999999998
7.61364e-11,20464.2
7.85902e-11,20163.5
8.11227e-11,19867.9
8.37372e-11,19577.3
8.643549999999999e-11,19291.5
8.922119999999998e-11,19010.5
9.209619999999999e-11,18734.3
9.506439999999999e-11,18462.7
9.81277e-11,18195.8
1.01291e-10,17933.3
1.04554e-10,17675.3
1.07924e-10,17421.6
1.11402e-10,17172.4
1.1499200000000001e-10,16927.3
1.18949e-10,16670.5
1.2304200000000001e-10,16418.4
1.27276e-10,16170.9
1.31656e-10,15927.9
1.36187e-10,15689.5
1.40873e-10,15455.4
1.45721e-10,15225.599999999999
1.50735e-10,15000.1
1.55922e-10,14778.7
1.6128700000000002e-10,14561.5
1.66837e-10,14348.300000000001
1.7257800000000002e-10,14139.1
1.78517e-10,13933.7
1.8466e-10,13732.3
1.91014e-10,13534.6
1.97587e-10,13340.7
2.04387e-10,13150.4
2.1142e-10,12963.7
2.1869500000000001e-10,12780.499999999998
2.26221e-10,12600.9
2.34005e-10,12424.599999999999
2.42057e-10,12251.7
2.5038700000000003e-10,12082.2
2.59003e-10,11915.800000000001
2.67915e-10,11752.7
2.77135e-10,11592.7
2.86671e-10,11435.800000000001
2.96536e-10,11281.9
3.0674e-10,11131.1
3.1729500000000004e-10,10983.099999999999
3.2821400000000003e-10,10838.000000000002
3.4022500000000003e-10,10687.0
3.52679e-10,10539.0
3.6558600000000004e-10,10394.2
3.78968e-10,10252.4
3.9283800000000004e-10,10113.5
4.07217e-10,9977.5
4.2212e-10,9844.38
4.37571e-10,9714.01
4.53585e-10,9586.4
4.70189e-10,9461.449999999999
4.873960000000001e-10,9339.140000000001
5.05237e-10,9219.38
5.23727e-10,9102.16
5.42898e-10,8987.38
5.62767e-10,8875.05
5.83366e-10,8765.06
6.059980000000001e-10,8651.14
6.29507e-10,8539.76
6.53929e-10,8430.859999999999
6.79298e-10,8324.39
7.056520000000001e-10,8220.3
7.330280000000001e-10,8118.53
7.61465e-10,8019.0199999999995
7.91006e-10,7921.7300000000005
8.21693e-10,7826.61
8.53571e-10,7733.59
8.885600000000001e-10,7637.660000000001
9.249879999999999e-10,7543.96
9.62904e-10,7452.46
1.0023800000000002e-9,7363.08
1.04347e-9,7275.8
1.08625e-9,7190.53
1.1307700000000002e-9,7107.26
1.17713e-9,7025.91
1.22538e-9,6946.44
1.27832e-9,6864.77
1.3335400000000001e-9,6785.08
1.3911400000000002e-9,6707.320000000001
1.4512400000000003e-9,6631.44
1.5139300000000002e-9,6557.38
1.57932e-9,6485.1
1.6475500000000002e-9,6414.5599999999995
1.72236e-9,6342.3
1.80056e-9,6271.860000000001
1.88232e-9,6203.17
1.96778e-9,6136.2
2.05714e-9,6070.89
2.15054e-9,6007.21
2.2529400000000003e-9,5942.1900000000005
2.36022e-9,5878.85
2.4726100000000002e-9,5817.14
2.59036e-9,5757.0199999999995
2.7137e-9,5698.45
2.84895e-9,5638.82
2.9909200000000003e-9,5580.79
3.1399900000000004e-9,5524.3
3.2964600000000004e-9,5469.32
3.4607600000000004e-9,5415.79
3.6409200000000003e-9,5361.46
3.8304600000000004e-9,5308.62
4.02986e-9,5257.240000000001
4.23965e-9,5207.27
4.46979e-9,5156.67
4.71245e-9,5107.51
4.9682500000000005e-9,5059.75
5.23797e-9,5013.35
5.534e-9,4966.48
5.84676e-9,4920.99
6.1772100000000004e-9,4876.83
6.52632e-9,4833.96
6.90975e-9,4790.77
7.315740000000001e-9,4748.88
7.745540000000001e-9,4708.26
8.217980000000001e-9,4667.43
8.71923e-9,4627.86
9.25105e-9,4589.53
9.83612e-9,4551.08
1.0458099999999999e-8,4513.87
1.11195e-8,4477.839999999999
1.18478e-8,4441.79
1.26237e-8,4406.93
1.34789e-8,4372.110000000001
1.4392e-8,4338.46
1.5367e-8,4305.96
1.64428e-8,4273.5599999999995
1.75939e-8,4242.29
1.88655e-8,4211.179999999999
2.02289e-8,4181.18
2.17368e-8,4151.39
2.3357000000000002e-8,4122.6900000000005
2.51513e-8,4094.2499999999995
2.52522e-8,4092.7400000000002
2.5299999999999998e-8,4092.03
2.73011e-8,4063.98
2.94605e-8,4037.01
3.1858e-8,4010.37
3.45235e-8,3984.1099999999997
3.74121e-8,3958.91
4.0628000000000005e-8,3934.1
4.4213899999999996e-8,3909.71
4.8116199999999996e-8,3886.3599999999997
5.2474e-8,3863.4300000000003
5.7347400000000006e-8,3840.98
6.280590000000001e-8,3819.01
6.89298e-8,3797.56
7.5811e-8,3776.64
8.35556e-8,3756.25
9.228600000000001e-8,3736.42
1.0214499999999999e-7,3717.16
1.13296e-7,3698.47
1.2593e-7,3680.35
1.40567e-7,3662.5
1.57237e-7,3645.2599999999998
1.76256e-7,3628.6299999999997
1.98413e-7,3612.32
2.2382799999999998e-7,3596.65
2.53568e-7,3581.34
2.88479e-7,3566.43
3.29585e-7,3551.94
3.78146e-7,3537.88
4.3569899999999994e-7,3524.28
5.041409999999999e-7,3511.12
5.870449999999999e-7,3498.25
6.87931e-7,3485.7
8.09575e-7,3473.62
9.58789e-7,3461.86
1.18256e-6,3448.28
1.7752799999999998e-6,3424.62
3.4294899999999997e-6,3391.75
7.20605e-6,3359.4
1.7540400000000002e-5,3319.12
4.5795700000000006e-5,3249.69
4.75217e-5,3248.38
4.99112e-5,3254.68
5.09699e-5,3268.48
5.16956e-5,3292.3
5.2127400000000005e-5,3321.2799999999997
5.240090000000001e-5,3352.25
5.26744e-5,3402.58
5.281830000000001e-5,3442.77
5.2962200000000006e-5,3499.05
5.30702e-5,3557.56
5.31781e-5,3637.9199999999996
5.32501e-5,3709.65
5.330910000000001e-5,3784.22
5.33681e-5,3878.73
5.3412400000000004e-5,3967.75
5.34566e-5,4078.4700000000003
5.3496200000000005e-5,4203.03
5.35264e-5,4320.58
5.355660000000001e-5,4464.54
5.3576800000000005e-5,4579.58
5.35969e-5,4713.969999999999
5.3617100000000005e-5,4872.2300000000005
5.36372e-5,5059.96
5.3654500000000006e-5,5249.54
5.3668900000000004e-5,5431.7
5.368330000000001e-5,5639.53
5.3697700000000006e-5,5877.030000000001
5.3712100000000004e-5,6148.66
5.372650000000001e-5,6459.37
5.3740900000000006e-5,6814.62
5.375530000000001e-5,7220.32
5.376610000000001e-5,7561.5
5.37768e-5,7937.389999999999
5.37876e-5,8350.89
5.37984e-5,8804.9
5.38092e-5,9302.36
5.382e-5,9846.130000000001
5.38308e-5,10439.0
5.38416e-5,11083.7
5.38524e-5,11782.6
5.386320000000001e-5,12537.8
5.3874000000000006e-5,13351.1
5.38857e-5,14296.3
5.3897800000000004e-5,15350.8
5.3909800000000003e-5,16481.2
5.3926000000000005e-5,18104.5
5.3942100000000007e-5,19855.2
5.3959300000000004e-5,21861.0
5.398240000000001e-5,24712.800000000003
5.401690000000001e-5,29240.0
5.40572e-5,34547.9
5.4080300000000005e-5,37386.7
5.40975e-5,39334.7
5.4114800000000006e-5,41073.899999999994
5.413210000000001e-5,42559.4
5.414930000000001e-5,43751.5
5.4160800000000005e-5,44366.700000000004
5.417700000000001e-5,44969.799999999996
5.41937e-5,45263.600000000006
5.41995e-5,45284.6
5.4213800000000006e-5,45158.4
5.42259e-5,44855.799999999996
5.4243800000000004e-5,44091.1
5.4261e-5,43010.4
5.4278300000000005e-5,41625.0
5.429560000000001e-5,39972.5
5.4312800000000006e-5,38096.4
5.43359e-5,35328.6
5.4370400000000004e-5,30841.0
5.4410700000000004e-5,25533.899999999998
5.44314e-5,22927.0
5.44523e-5,20454.2
5.4470000000000005e-5,18503.4
5.4481800000000004e-5,17285.7
5.449360000000001e-5,16137.699999999999
5.4507300000000006e-5,14896.8
5.4521e-5,13752.1
5.4534600000000005e-5,12702.7
5.454830000000001e-5,11746.099999999999
5.4562000000000004e-5,10878.8
5.45757e-5,10096.300000000001
5.45893e-5,9393.599999999999
5.4603000000000006e-5,8765.13
5.461380000000001e-5,8317.61
5.4624600000000006e-5,7909.87
5.463180000000001e-5,7658.7300000000005
5.4646200000000005e-5,7202.29
5.46606e-5,6801.59
5.467500000000001e-5,6450.42
5.4689400000000005e-5,6143.0
5.47037e-5,5873.99
5.47181e-5,5638.530000000001
5.4734e-5,5413.1
5.474980000000001e-5,5217.84
5.47656e-5,5048.29
5.47894e-5,4833.85
5.48131e-5,4657.879999999999
5.4836900000000003e-5,4511.97
5.4858500000000003e-5,4399.93
5.48858e-5,4280.13
5.4926800000000004e-5,4135.44
5.4967900000000006e-5,4021.1800000000003
5.500890000000001e-5,3928.74
5.5063600000000006e-5,3829.91
5.513550000000001e-5,3729.8300000000004
5.52075e-5,3653.2599999999998
5.53154e-5,3567.73
5.542340000000001e-5,3505.5499999999997
5.5567300000000006e-5,3445.71
5.575440000000001e-5,3392.35
5.5984700000000006e-5,3348.81
5.63877e-5,3303.25
5.66756e-5,3283.27
5.7424000000000004e-5,3253.34
5.8635100000000004e-5,3231.14
6.225290000000001e-5,3206.17
0.00010094399999999999,3069.72
0.00012195700000000001,2975.33
0.00013829,2882.83
0.000151478,2789.8999999999996
0.000162396,2694.9700000000003
0.000171548,2597.5
0.00017848200000000002,2508.54
0.00018484000000000003,2411.36
0.000190092,2316.11
0.000194016,2233.66
0.000197889,2139.86
0.000201762,2030.6899999999998
0.000204345,1947.3400000000001
0.000206927,1853.71
0.000209509,1747.9199999999998
0.00021144599999999998,1659.38
0.00021338200000000002,1562.03
0.00021522000000000002,1460.87
0.00021705800000000003,1351.5600000000002
0.000220734,1120.8700000000001
0.00022165300000000001,1068.23
0.000222266,1037.49
0.000222878,1012.4100000000001
0.000223395,997.583
0.00022381700000000004,991.393
0.00022402700000000004,990.85
0.000224343,993.918
0.000224659,1002.4
0.00022497500000000003,1017.41
0.000225291,1040.45
0.000225501,1061.22
0.000225712,1087.0500000000002
0.000225956,1124.31
0.00022620000000000002,1170.7399999999998
0.00022636300000000001,1207.59
0.00022653500000000004,1252.47
0.000226708,1304.14
0.000226889,1367.03
0.00022707400000000001,1440.69
0.000227244,1518.74
0.000227406,1603.8600000000001
0.00022753100000000003,1676.63
0.000227655,1756.82
0.00022779900000000002,1859.55
0.00022792300000000002,1958.4299999999998
0.00022804799999999998,2067.48
0.000228191,2207.3999999999996
0.000228335,2364.3
0.00022847900000000002,2540.45
0.00022862200000000002,2738.4900000000002
0.00022871800000000004,2884.17
0.000228814,3041.9700000000003
0.00022890899999999999,3213.04
0.000229005,3398.66
0.000229101,3600.2900000000004
0.000229196,3819.5299999999997
0.00022929200000000003,4058.1899999999996
0.00022938800000000002,4318.32
0.00022948400000000004,4602.22
0.00022957900000000005,4912.5
0.00022967499999999999,5252.139999999999
0.000229771,5624.5
0.000229867,6033.46
0.000229962,6483.43
0.00023005800000000003,6979.549999999999
0.00023015400000000002,7527.68
0.00023022600000000001,7977.01
0.00023029700000000002,8462.72
0.00023036900000000002,8988.54
0.00023044099999999998,9558.640000000001
0.00023051300000000003,10177.8
0.000230585,10851.3
0.00023065600000000004,11585.300000000001
0.000230728,12386.900000000001
0.0002308,13264.0
0.00023087200000000002,14225.8
0.00023094400000000002,15283.1
0.00023101500000000002,16448.2
0.00023108700000000002,17735.7
0.00023115800000000003,19142.5
0.000231228,20693.0
0.00023129900000000002,22418.7
0.00023134600000000003,23679.5
0.000231393,25038.999999999996
0.000231439,26507.6
0.000231486,28097.2
0.00023152800000000002,29638.8
0.00023157100000000002,31299.800000000003
0.00023161299999999998,33093.2
0.000231655,35033.1
0.000231697,37136.3
0.000231739,39421.7
0.00023178100000000002,41911.7
0.00023182299999999998,44631.9
0.00023186200000000002,47330.2
0.0002319,50270.5
0.00023193800000000003,53484.100000000006
0.000231976,57007.8
0.000232015,60885.6
0.00023205300000000002,65169.2
0.00023209100000000002,69921.6
0.00023212000000000002,73838.1
0.000232145,77508.6
0.00023217599999999998,82421.5
0.00023220600000000002,87827.3
0.000232237,93796.2
0.000232267,100410.0
0.000232298,107766.0
0.00023232100000000001,113836.0
0.00023234400000000002,120439.0
0.000232367,127636.0
0.000232388,134812.0
0.000232415,144842.0
0.000232442,155997.0
0.000232462,165192.0
0.000232482,175173.0
0.000232502,186017.0
0.000232522,197804.0
0.000232542,210624.0
0.000232562,224568.0
0.00023258200000000003,239740.99999999997
0.00023260100000000003,254615.0
0.000232624,275096.0
0.00023264700000000002,297633.0
0.00023267000000000003,322412.0
0.000232692,349631.0
0.000232715,379491.0
0.000232738,412199.0
0.000232761,447964.0
0.000232782,482266.99999999994
0.00023279899999999998,514215.0
0.00023281700000000002,548276.0
0.00023284300000000002,603517.0
0.00023287,663974.0
0.00023289600000000001,729872.0
0.00023291400000000003,776917.0
0.000232937,842109.9999999999
0.00023296000000000002,911678.0
0.000232983,985636.0
0.000233013,1.091e6
0.000233044,1.20385e6
0.00023308200000000002,1.35476e6
0.000233128,1.5485e6
0.000233174,1.75289e6
0.000233297,2.31338e6
0.000233343,2.51208e6
0.000233389,2.69394e6
0.000233419,2.80244e6
0.00023344999999999998,2.89849e6
0.000233481,2.98038e6
0.00023351700000000003,3.05783e6
0.000233539,3.09173e6
0.000233569,3.12498e6
0.000233606,3.14056e6
0.00023360900000000002,3.14068e6
0.00023364,3.13143e6
0.00023367300000000002,3.10078e6
0.00023370400000000002,3.05322e6
0.000233735,2.98847e6
0.000233772,2.89128e6
0.00023380800000000004,2.7745e6
0.000233845,2.64121e6
0.00023388200000000004,2.4948e6
0.00023394599999999999,2.21756e6
0.00023405000000000002,1.75241e6
0.00023409300000000002,1.56801e6
0.00023413900000000002,1.38095e6
0.00023417,1.26375e6
0.00023420000000000003,1.15331e6
0.000234233,1.0441400000000001e6
0.000234265,943296.0
0.00023428700000000002,880725.0
0.00023430900000000004,821853.0
0.00023433000000000001,766630.0
0.00023435199999999998,714969.0
0.000234373,666767.0
0.000234399,613536.0
0.00023442500000000002,564826.0
0.00023445100000000002,520376.0
0.00023447700000000003,479915.0
0.000234503,443160.00000000006
0.000234529,409832.0
0.00023455400000000002,379654.0
0.00023458000000000002,352357.0
0.00023460600000000002,327680.0
0.000234632,305382.0
0.000234658,285232.0
0.000234684,267015.0
0.00023470900000000002,250535.0
0.00023473500000000002,235610.0
0.000234761,222074.99999999997
0.000234787,209782.0
0.000234813,198596.0
0.00023483900000000003,188398.0
0.00023486600000000002,178749.0
0.000234894,169341.0
0.000234923,160781.0
0.00023495200000000002,152971.0
0.00023499,143573.0
0.00023502800000000003,135177.0
0.00023506700000000002,127637.0
0.000235105,120831.0
0.00023514300000000002,114660.0
0.00023519100000000002,107647.0
0.000235235,101936.0
0.00023527900000000002,96751.0
0.00023533700000000001,90537.6
0.000235396,85006.2
0.000235454,80052.2
0.000235513,75592.0
0.00023557100000000004,71557.2
0.000235629,67891.9
0.00023569000000000002,64405.4
0.000235751,61227.1
0.00023583300000000002,57404.700000000004
0.00023591400000000002,53991.0
0.000235996,50926.799999999996
0.000236077,48163.5
0.000236158,45660.99999999999
0.00023624000000000003,43385.99999999999
0.000236328,41136.0
0.00023642400000000003,38934.4
0.00023652000000000002,36941.5
0.00023661500000000002,35130.5
0.000236711,33478.9
0.000236855,31259.7
0.000236998,29304.3
0.000237132,27680.1
0.00023726200000000002,26271.0
0.00023739100000000002,24995.3
0.00023756300000000002,23473.0
0.00023773499999999999,22124.600000000002
0.000237927,20797.7
0.00023811800000000003,19622.6
0.00023831000000000004,18575.600000000002
0.00023850099999999999,17638.0
0.000238693,16794.4
0.00023888400000000003,16032.1
0.00023907600000000004,15340.400000000001
0.000239363,14416.1
0.00023965000000000002,13606.3
0.000239937,12891.900000000001
0.000240224,12257.6
0.00024051200000000002,11691.0
0.000240799,11182.300000000001
0.000241172,10594.4
0.000241545,10076.5
0.000241919,9617.43
0.00024229200000000002,9207.5
0.00024279000000000003,8724.4
0.00024324900000000002,8332.74
0.00024370900000000002,7984.62
0.00024432200000000005,7576.679999999999
0.000244934,7221.69
0.00024554700000000004,6910.03
0.00024616,6634.23
0.00024677200000000003,6388.410000000001
0.000247691,6065.9
0.00024861,5788.29
0.000249529,5546.91
0.000250142,5402.55
0.000251367,5145.52
0.000252593,4923.69
0.000253818,4729.639999999999
0.000255043,4557.820000000001
0.000256728,4350.259999999999
0.00025841300000000003,4168.87
0.000260481,3972.48
0.000262702,3786.33
0.000265535,3574.84
0.000269546,3306.9
0.000279934,2663.96
0.00028264399999999997,2486.7599999999998
0.00028535400000000003,2298.01
0.00028738600000000004,2146.42
0.000289418,1984.52
0.000291451,1810.64
0.000293483,1624.3799999999999
0.00029551500000000005,1427.56
0.00029788600000000003,1195.49
0.00029890300000000005,1103.1599999999999
0.00029958000000000003,1047.99
0.000300088,1011.89
0.00030062400000000004,980.8960000000001
0.000300991,965.2049999999999
0.00030135800000000005,955.1800000000001
0.000301634,952.163
0.00030172500000000003,952.143
0.00030200800000000004,955.579
0.00030229,965.014
0.00030257200000000003,981.5200000000001
0.000302784,999.297
0.000302974,1019.8199999999999
0.000303214,1052.5800000000002
0.000303401,1084.17
0.00030360200000000004,1124.85
0.000303793,1170.62
0.000303992,1227.01
0.000304153,1279.53
0.00030435,1353.9399999999998
0.000304492,1414.46
0.000304633,1481.79
0.000304774,1556.6
0.000304915,1639.65
0.000305056,1731.77
0.000305225,1855.6
0.00030533800000000005,1947.05
0.00030545100000000004,2046.3100000000002
0.00030557800000000003,2168.1499999999996
0.000305719,2317.4100000000003
0.000305861,2482.84
0.00030600200000000004,2666.29
0.00030614300000000004,2869.85
0.00030628400000000004,3095.89
0.00030639,3281.79
0.000306496,3483.1400000000003
0.000306602,3701.39
0.00030670700000000003,3938.1
0.000306813,4195.070000000001
0.000306919,4474.25
0.00030702500000000005,4777.87
0.00030713100000000004,5108.4
0.00030723699999999997,5468.639999999999
0.000307343,5861.72
0.000307448,6291.2
0.00030755400000000003,6761.09
0.00030766,7275.97
0.000307766,7841.04
0.00030787200000000005,8462.300000000001
0.000307978,9146.55
0.000308083,9901.69
0.000308189,10736.8
0.000308295,11662.6
0.00030839400000000003,12619.199999999999
0.000308489,13637.6
0.00030858500000000006,14762.3
0.00030868000000000003,16007.800000000001
0.000308775,17390.399999999998
0.000308867,18869.7
0.000308951,20381.8
0.000309036,22054.2
0.000309121,23908.999999999996
0.000309177,25259.7
0.00030923400000000003,26711.9
0.00030929000000000004,28275.600000000002
0.000309366,30583.9
0.000309443,33148.4
0.00030949300000000004,35019.1
0.00030954400000000003,37033.6
0.000309595,39206.8
0.000309646,41555.4
0.000309697,44098.7
0.000309742,46540.5
0.000309787,49170.9
0.000309832,52009.9
0.000309877,55080.200000000004
0.000309922,58407.9
0.00030996800000000004,62023.0
0.00031001300000000004,65960.3
0.000310058,70260.0
0.000310098,74356.7
0.00031013700000000004,78803.5
0.000310177,83643.09999999999
0.00031021600000000004,88924.29999999999
0.000310256,94704.70000000001
0.000310295,101051.0
0.000310335,108040.0
0.00031037400000000003,115763.0
0.00031040800000000003,123049.00000000001
0.000310442,131029.0
0.000310476,139793.0
0.00031051000000000006,149443.0
0.00031054300000000004,160094.0
0.00031057700000000003,171877.0
0.000310611,184942.0
0.000310637,195682.0
0.000310661,206645.0
0.00031069200000000005,222133.0
0.000310723,239245.99999999997
0.00031075400000000005,258171.99999999997
0.000310785,279114.0
0.00031080800000000004,296276.0
0.000310831,314794.0
0.000310855,334774.0
0.000310878,356324.0
0.000310906,384713.0
0.000310932,412550.0
