E(MeV),xs(mb)
1.0e-11,30315.2
1.03223e-11,29850.6
1.06549e-11,29393.699999999997
1.0998399999999998e-11,28944.0
1.13527e-11,28501.699999999997
1.1718599999999999e-11,28066.5
1.2096199999999998e-11,27638.4
1.24861e-11,27217.2
1.2888399999999999e-11,26802.899999999998
1.3303799999999998e-11,26395.2
1.37325e-11,25994.3
1.41751e-11,25599.8
1.4631799999999997e-11,25211.899999999998
1.51034e-11,24830.199999999997
1.5590099999999998e-11,24454.8
1.6092599999999998e-11,24085.5
1.66111e-11,23722.3
1.71465e-11,23365.0
1.7699e-11,23013.6
1.8269399999999998e-11,22667.899999999998
1.88581e-11,22328.0
1.94659e-11,21993.7
2.00931e-11,21664.9
2.0740699999999998e-11,21341.5
2.1408999999999998e-11,21023.5
2.2099099999999997e-11,20710.7
2.28111e-11,20403.3
2.3546399999999998e-11,20100.8
2.4305099999999997e-11,19803.5
2.50884e-11,19511.0
2.5896799999999997e-11,19223.600000000002
2.67315e-11,18940.8
2.75928e-11,18662.9
2.8482199999999998e-11,18389.6
2.93999e-11,18121.0
3.0347499999999995e-11,17856.8
3.13253e-11,17597.2
3.2335e-11,17342.0
3.33769e-11,17091.1
3.44526e-11,16844.5
3.55627e-11,16602.1
3.67089e-11,16363.8
3.7891799999999997e-11,16129.7
3.9113e-11,15899.5
4.0373400000000003e-11,15673.4
4.17626e-11,15436.5
4.319969999999999e-11,15204.0
4.46863e-11,14975.8
4.6224e-11,14751.8
4.78146e-11,14532.0
4.9459999999999996e-11,14316.4
5.1162e-11,14104.8
5.29225e-11,13897.2
5.4743599999999994e-11,13693.5
5.66274e-11,13493.699999999999
5.8576e-11,13297.699999999999
6.059169999999999e-11,13105.4
6.26768e-11,12916.9
6.483349999999999e-11,12732.000000000002
6.70645e-11,12550.699999999999
6.937229999999999e-11,12372.9
7.17595e-11,12198.500000000002
7.422879999999999e-11,12027.6
7.67831e-11,11860.1
7.942529999999999e-11,11695.9
8.21584e-11,11535.0
8.498559999999999e-11,11377.2
8.791009999999999e-11,11222.7
9.09351e-11,11071.2
9.40643e-11,10922.9
9.730119999999998e-11,10777.5
1.0064900000000001e-10,10635.2
1.0411300000000002e-10,10495.8
1.0769599999999999e-10,10359.199999999999
1.11402e-10,10225.599999999999
1.1548000000000001e-10,10086.599999999999
1.19705e-10,9950.73
1.24088e-10,9817.9
1.28628e-10,9688.140000000001
1.33337e-10,9561.289999999999
1.38217e-10,9437.4
1.43276e-10,9316.33
1.48519e-10,9198.119999999999
1.5395600000000002e-10,9082.64
1.5959000000000001e-10,8969.91
1.65432e-10,8859.83
1.71486e-10,8752.42
1.7776400000000002e-10,8647.56
1.84269e-10,8545.28
1.91014e-10,8445.460000000001
1.9842500000000002e-10,8342.460000000001
2.06123e-10,8242.17
2.14119e-10,8144.52
2.2242600000000002e-10,8049.4800000000005
2.31055e-10,7956.99
2.40019e-10,7866.990000000001
2.4933e-10,7779.46
2.59003e-10,7694.320000000001
2.6961900000000004e-10,7607.02
2.80673e-10,7522.2699999999995
2.92178e-10,7440.05
3.0415700000000004e-10,7360.2699999999995
3.16624e-10,7282.91
3.29605e-10,7207.89
3.43115e-10,7135.169999999999
3.5793700000000003e-10,7061.04
3.73399e-10,6989.320000000001
3.8952900000000004e-10,6919.97
4.06356e-10,6852.92
4.24808e-10,6784.91
4.44095e-10,6719.32
4.6426100000000007e-10,6656.04
4.85339e-10,6595.030000000001
5.08451e-10,6533.46
5.32662e-10,6474.22
5.58027e-10,6417.24
5.84599e-10,6362.4400000000005
6.13735e-10,6307.389999999999
6.443190000000001e-10,6254.570000000001
6.77861e-10,6201.7300000000005
7.131500000000001e-10,6151.13
7.50275e-10,6102.68
7.91006e-10,6054.41
8.339440000000001e-10,6008.28
8.810760000000001e-10,5962.4800000000005
9.308719999999999e-10,5918.8099999999995
9.855660000000001e-10,5875.59
1.04347e-9,5834.46
1.1071100000000001e-9,5793.88
1.17713e-9,5753.9800000000005
1.25157e-9,5716.13
1.3335400000000001e-9,5679.02
1.42388e-9,5642.719999999999
1.52356e-9,5607.33
1.63367e-9,5572.9
1.75545e-9,5539.49
1.8903000000000004e-9,5507.150000000001
2.0398100000000002e-9,5475.92
2.2058e-9,5445.820000000001
2.39036e-9,5416.89
2.59584e-9,5389.12
2.8309300000000003e-9,5361.889999999999
3.0938500000000004e-9,5335.92
3.39551e-9,5310.660000000001
3.7344800000000005e-9,5286.7
4.12469e-9,5263.56
4.57499e-9,5241.29
5.095930000000001e-9,5219.98
5.70027e-9,5199.650000000001
6.416850000000001e-9,5180.0
7.254120000000001e-9,5161.450000000001
8.25281e-9,5143.72
9.46877e-9,5126.62
1.0933e-8,5110.509999999999
1.2730900000000001e-8,5095.2
1.49504e-8,5080.78
1.77433e-8,5067.12
2.1327e-8,5054.17
2.52522e-8,5043.66
2.5299999999999998e-8,5043.55
3.11915e-8,5032.099999999999
3.90282e-8,5021.5
4.9771900000000005e-8,5011.63
6.496710000000001e-8,5002.45
8.69806e-8,4994.01
1.19952e-7,4986.3099999999995
1.71477e-7,4979.29
2.56264e-7,4972.9400000000005
4.04619e-7,4967.2
6.850279999999999e-7,4961.97
1.26837e-6,4957.05
2.2889800000000002e-5,4923.89
2.4419600000000002e-5,4923.25
2.7036600000000005e-5,4932.1
2.7706000000000002e-5,4950.820000000001
2.7992300000000003e-5,4973.58
2.8221300000000004e-5,5014.85
2.83702e-5,5073.45
2.8438900000000003e-5,5121.64
2.8501900000000002e-5,5192.41
2.8544800000000005e-5,5270.84
2.8573400000000003e-5,5349.929999999999
2.8594500000000002e-5,5431.12
2.8614700000000006e-5,5536.71
2.8634900000000003e-5,5681.3
2.86483e-5,5807.11
2.86618e-5,5963.35
2.86752e-5,6157.15
2.86853e-5,6332.09
2.8695400000000003e-5,6536.71
2.87043e-5,6744.5
2.87132e-5,6981.54
2.8722e-5,7250.95
2.8730900000000003e-5,7555.95
2.8739800000000002e-5,7899.759999999999
2.87487e-5,8285.49
2.8757500000000004e-5,8716.11
2.8766400000000003e-5,9194.29
2.8775e-5,9704.52
2.87836e-5,10263.1
2.8789300000000002e-5,10662.9
2.88008e-5,11528.9
2.8812200000000002e-5,12482.800000000001
2.88237e-5,13521.4
2.88351e-5,14638.500000000002
2.88523e-5,16439.3
2.88752e-5,18996.9
2.8900400000000002e-5,21840.8
2.8917600000000002e-5,23669.2
2.8931300000000005e-5,24996.9
2.8945e-5,26155.1
2.89588e-5,27102.5
2.8967900000000004e-5,27599.100000000002
2.89771e-5,27977.6
2.8989500000000004e-5,28290.1
2.8999300000000002e-5,28369.8
2.90096e-5,28290.8
2.9021100000000002e-5,28010.4
2.9030200000000005e-5,27645.2
2.9039400000000002e-5,27161.5
2.90531e-5,26232.4
2.9066900000000005e-5,25090.8
2.90806e-5,23778.0
2.9096600000000005e-5,22090.0
2.91443e-5,16757.899999999998
2.9161500000000002e-5,14944.2
2.9172900000000003e-5,13814.2
2.91844e-5,12760.0
2.91958e-5,11788.400000000001
2.92073e-5,10903.300000000001
2.9215900000000003e-5,10297.0
2.92244e-5,9739.62
2.9233e-5,9230.050000000001
2.9241600000000005e-5,8766.74
2.9250200000000003e-5,8347.619999999999
2.9258800000000002e-5,7970.34
2.9267400000000004e-5,7632.27
2.9276000000000002e-5,7330.66
2.92846e-5,7062.66
2.9293100000000002e-5,6825.389999999999
2.9305200000000002e-5,6539.52
2.93172e-5,6300.950000000001
2.9329200000000004e-5,6102.79
2.9341200000000003e-5,5938.74
2.9353300000000002e-5,5803.21
2.93713e-5,5642.89
2.9389300000000003e-5,5522.25
2.9410800000000003e-5,5415.93
2.94323e-5,5338.0
2.94609e-5,5263.16
2.9503800000000004e-5,5188.07
2.95611e-5,5124.41
2.9618400000000004e-5,5082.25
2.97329e-5,5029.860000000001
2.98474e-5,4999.12
3.0076400000000002e-5,4965.8
3.05884e-5,4937.23
3.22891e-5,4917.570000000001
7.483640000000001e-5,4872.33
0.00019584,4796.2699999999995
0.000502363,4676.389999999999
0.0006578570000000001,4614.16
0.000666915,4623.179999999999
0.0006696320000000001,4640.95
0.000670986,4663.95
0.0006721040000000001,4705.92
0.000672714,4751.71
0.0006730530000000001,4792.849999999999
0.0006733920000000001,4856.87
0.000673561,4905.92
0.0006737300000000001,4979.59
0.000673857,5066.620000000001
0.000673959,5172.54
0.000674018,5257.73
0.000674078,5367.28
0.000674137,5508.96
0.000674181,5642.22
0.000674226,5804.26
0.00067427,6001.15
0.000674315,6239.9800000000005
0.000674359,6529.0
0.000674395,6806.129999999999
0.000674427,7087.55
0.000674459,7407.91
0.00067449,7771.79
0.000674522,8184.04
0.0006745540000000001,8649.88
0.000674586,9174.789999999999
0.0006746170000000001,9764.570000000002
0.000674649,10425.199999999999
0.000674681,11162.9
0.0006747130000000001,11984.0
0.000674744,12894.9
0.0006747760000000001,13902.000000000002
0.000674808,15011.5
0.00067484,16229.499999999998
0.0006748710000000001,17561.7
0.000674903,19013.4
0.000674935,20589.300000000003
0.0006749670000000001,22293.3
0.000674999,24128.6
0.0006750300000000001,26097.199999999997
0.000675063,28272.6
0.0006750980000000001,30745.5
0.0006751330000000001,33378.2
0.00067518,37128.1
0.000675226,41135.200000000004
0.00067528,46066.6
0.000675344,52189.7
0.0006755410000000001,72005.9
0.00067561,78679.1
0.0006756780000000001,84593.0
0.000675729,88529.8
0.000675775,91624.59999999999
0.000675812,93789.4
0.00067586,96075.70000000001
0.000675909,97728.5
0.000675957,98674.5
0.0006760000000000001,98951.4
0.000676046,98624.1
0.000676095,97587.7
0.000676139,96054.99999999999
0.0006761800000000001,94172.7
0.0006762340000000001,91022.20000000001
0.000676281,87708.7
0.0006763320000000001,83669.6
0.0006763810000000001,79368.0
0.0006764480000000001,72997.7
0.000676576,60183.299999999996
0.0006766610000000001,51698.2
0.0006767240000000001,45603.7
0.0006767660000000001,41734.9
0.000676809,38053.1
0.000676851,34579.1
0.000676893,31328.100000000002
0.000676936,28309.899999999998
0.000676968,26202.0
0.0006769990000000001,24228.3
0.000677031,22387.7
0.000677063,20678.3
0.0006770950000000001,19097.0
0.000677126,17639.8
0.0006771580000000001,16302.000000000002
0.00067719,15078.6
0.000677222,13963.699999999999
0.0006772530000000001,12951.5
0.000677285,12035.499999999998
0.0006773170000000001,11209.499999999998
0.000677349,10467.1
0.00067738,9802.060000000001
0.0006774120000000001,9208.09
0.000677444,8679.23
0.000677476,8209.699999999999
0.000677507,7794.030000000001
0.000677539,7426.97
0.0006775710000000001,7103.67
0.0006776060000000001,6793.16
0.000677647,6479.73
0.0006776880000000001,6216.41
0.0006777300000000001,5995.8099999999995
0.000677771,5811.37
0.0006778120000000001,5657.4
0.0006778670000000001,5491.06
0.000677922,5360.38
0.0006779770000000001,5257.46
0.000678032,5176.01
0.0006781170000000001,5081.58
0.000678244,4986.2
0.0006783710000000001,4923.41
0.000678541,4866.55
0.000678879,4795.56
0.000679388,4734.5
0.0006802010000000001,4683.08
0.000681149,4652.55
0.000683182,4623.55
0.000687856,4602.88
0.0007335880000000001,4564.28
0.000815569,4491.52
0.0008738400000000001,4420.27
0.0008791460000000001,4430.58
0.000881988,4460.5199999999995
0.000883291,4495.62
0.0008840020000000002,4529.21
0.000884594,4572.36
0.0008850680000000001,4624.17
0.0008855420000000001,4703.23
0.000885897,4795.099999999999
0.000886134,4886.02
0.000886252,4947.51
0.000886394,5045.35
0.000886501,5145.889999999999
0.0008866080000000001,5283.48
0.000886679,5405.3
0.0008867500000000001,5560.7300000000005
0.0008868029999999999,5705.92
0.00088685,5860.76
0.0008868950000000001,6032.5
0.000886939,6234.8
0.0008869840000000001,6473.17
0.000887028,6753.9
0.000887072,7084.18
0.000887117,7472.16
0.0008871470000000001,7767.33
0.000887176,8095.14
0.000887206,8458.769999999999
0.0008872350000000001,8861.59
0.000887265,9307.21
0.0008872940000000001,9799.390000000001
0.000887323,10313.8
0.000887351,10877.4
0.000887379,11494.0
0.000887407,12167.4
0.000887435,12901.6
0.000887463,13700.699999999999
0.000887491,14568.8
0.00088752,15510.2
0.000887548,16529.0
0.0008875760000000001,17629.600000000002
0.0008876040000000001,18815.9
0.0008876320000000001,20092.2
0.0008876600000000001,21462.500000000004
0.0008876880000000001,22930.3
0.000887716,24499.5
0.000887745,26173.1
0.0008877739999999999,28051.2
0.0008878040000000001,30051.3
0.0008878330000000001,32176.100000000002
0.0008878780000000001,35600.8
0.0008879220000000001,39313.2
0.0008879670000000001,43312.9
0.0008880110000000001,47594.700000000004
0.000888055,52148.6
0.000888115,58616.1
0.0008881740000000001,65487.399999999994
0.0008882429999999999,73870.0
0.0008884790000000001,103932.0
0.0008885690000000001,114686.0
0.00088864,122376.0
0.000888697,127838.0
0.0008887470000000001,132012.0
0.000888802,135876.0
0.0008888640000000001,139200.0
0.0008889200000000001,141201.0
0.000888978,142159.0
0.0008890000000000001,142238.0
0.0008890570000000001,141695.0
0.000889106,140367.0
0.0008891550000000001,138267.0
0.000889199,135826.0
0.0008892530000000001,131951.0
0.000889303,127769.0
0.00088936,122300.00000000001
0.0008894310000000001,114604.0
0.0008895210000000001,103850.0
0.000889757,73809.1
0.0008898260000000001,65436.6
0.000889885,58574.6
0.000889944,52116.3
0.000889989,47569.299999999996
0.000890033,43293.9
0.000890078,39300.299999999996
0.000890122,35593.2
0.000890167,32173.4
0.0008901960000000001,30051.600000000002
0.000890226,28054.100000000002
0.0008902550000000001,26178.6
0.000890284,24506.800000000003
0.000890312,22939.4
0.00089034,21473.0
0.000890368,20104.1
0.000890396,18828.800000000003
0.000890424,17643.2
0.000890452,16543.399999999998
0.00089048,15525.0
0.0008905089999999999,14583.900000000001
0.000890537,13715.800000000001
0.000890565,12916.7
0.000890593,12182.4
0.000890621,11508.7
0.000890649,10891.699999999999
0.000890677,10327.699999999999
0.000890706,9812.789999999999
0.0008907349999999999,9319.94
0.0008907650000000001,8873.65
0.0008907940000000001,8470.09
0.000890824,8105.72
0.0008908540000000001,7777.12
0.0008908830000000001,7481.16
0.0008909280000000001,7091.99
0.0008909720000000001,6760.53
0.000891016,6478.65
0.0008910610000000001,6239.19
0.000891105,6035.83
0.0008911500000000001,5863.1
0.000891197,5707.27
0.00089125,5561.05
0.0008913209999999999,5404.38
0.000891392,5281.450000000001
0.000891499,5142.45
0.0008916060000000001,5040.72
0.0008917479999999999,4941.54
0.000891925,4852.599999999999
0.000892103,4786.4800000000005
0.000892458,4692.389999999999
0.0008929320000000001,4610.599999999999
0.0008934060000000001,4556.219999999999
0.000893998,4509.98
0.000895064,4458.9400000000005
0.000896959,4412.49
0.000900185,4376.45
0.000907977,4337.08
0.00093965,4215.849999999999
0.000955903,4129.81
0.000970178,4027.3500000000004
0.00098108,3921.98
0.000989491,3816.1299999999997
0.000994909,3731.58
0.00100033,3629.45
0.0010057400000000002,3503.64
0.00100981,3388.2400000000002
0.00101387,3248.5499999999997
0.00101658,3137.87
0.00101902,3023.17
0.00102145,2890.55
0.00102328,2776.73
0.00102511,2648.07
0.00102694,2501.65
0.00102816,2392.39
0.0010293799999999999,2272.3399999999997
0.0010306,2140.02
0.0010316799999999999,2010.76
0.0010326299999999999,1887.6599999999999
0.0010335799999999999,1754.37
0.0010345200000000001,1609.98
0.00103534,1476.8600000000001
0.0010360100000000002,1359.26
0.00103686,1204.07
0.0010377099999999998,1041.1
0.00103913,760.609
0.0010396000000000001,671.035
0.00103996,608.031
0.00104023,564.433
0.0010404,537.7030000000001
0.0010405800000000002,513.3009999999999
0.00104076,491.696
0.00104094,473.44
0.0010410900000000002,460.645
0.0010412300000000002,452.475
0.00104136,447.39500000000004
0.0010414699999999999,445.87199999999996
0.0010415,445.84000000000003
0.0010416000000000002,447.285
0.0010417,451.22799999999995
0.0010418,457.93100000000004
0.0010419099999999998,467.682
0.001042,479.881
0.00104207,491.604
0.00104217,510.712
0.00104227,531.886
0.00104235,555.0569999999999
0.0010424,572.062
0.0010424899999999999,601.45
0.0010425500000000002,626.246
0.0010426200000000002,653.577
0.0010427,694.286
0.00104279,740.275
0.0010428599999999998,786.606
0.00104294,838.021
0.00104301,891.6600000000001
0.0010430699999999999,943.416
0.00104314,999.652
0.0010432,1060.6899999999998
0.00104326,1126.91
0.00104333,1198.6699999999998
0.0010433900000000002,1276.47
0.00104345,1360.73
0.00104352,1451.9899999999998
0.00104358,1550.79
0.00104364,1657.8
0.00104371,1773.67
0.00104377,1899.1899999999998
0.00104384,2035.14
0.0010439000000000002,2182.52
0.00104396,2342.28
0.00104403,2515.61
0.00104409,2703.77
0.00104415,2908.21
0.00104422,3130.49
0.00104428,3372.47
0.0010443400000000002,3636.12
0.0010443899999999999,3864.33
0.00104444,4109.2300000000005
0.0010445,4372.38
0.0010445500000000002,4655.400000000001
0.0010446,4960.27
0.00104465,5288.97
0.0010447,5644.0
0.00104475,6027.92
0.0010448,6415.2300000000005
0.00104484,6833.1900000000005
0.0010448900000000001,7285.110000000001
0.00104494,7774.46
0.0010449900000000002,8305.56
0.00104503,8882.84
0.00104508,9511.77
0.00104513,10198.199999999999
0.00104518,10949.3
0.0010452200000000001,11772.7
0.0010452699999999998,12677.400000000001
0.00104532,13673.4
0.00104537,14772.6
0.0010454000000000001,15672.6
0.00104544,16643.9
0.00104547,17693.600000000002
0.00104551,18828.6
0.00104555,20242.2
0.00104559,21791.5
0.00104563,23492.1
0.00104567,25359.4
0.00104571,27412.6
0.00104575,29670.100000000002
0.00104579,32154.1
0.00104583,34886.9
0.0010458700000000002,37633.9
0.00104591,40631.8
0.0010459400000000002,43904.2
0.00104598,47473.4
0.00104602,51366.6
0.00104606,55608.1
0.00104609,60227.2
0.00104613,65251.0
0.00104616,70198.0
0.0010462,75527.2
0.00104623,81264.8
0.00104627,87432.20000000001
0.0010463,94058.1
0.00104633,101163.0
0.00104637,108773.00000000001
0.0010464,116910.0
0.00104644,125604.0
0.00104647,134870.0
0.0010465,144734.0
0.00104654,155211.0
0.00104657,166327.0
0.00104662,184223.0
0.00104667,203620.0
0.00104673,225433.0
0.00104678,248915.0
0.00104683,274062.0
0.00104688,300828.0
0.0010469400000000001,328413.0
0.00104701,372348.0
0.00104709,418947.0
0.0010471999999999999,487708.00000000006
0.00104741,628322.0
0.00104751,688157.0
0.0010476,736919.0
0.00104768,777380.0
0.00104776,811511.9999999999
0.00104782,831073.0
0.00104788,846714.0
0.00104793,857754.0000000001
0.001048,866072.0
0.00104805,868149.0
0.00104812,864625.0
0.00104819,854955.0
0.00104826,839403.0000000001
0.00104833,819312.0
0.00104839,794635.0
0.0010484700000000001,760765.0
0.0010485400000000001,722353.0
0.00104863,674200.0
0.00104877,590187.0
0.00104893,491582.0
0.0010490299999999998,432480.0
0.0010490999999999999,395098.0
0.0010491699999999999,359711.0
0.0010492300000000002,331696.0
0.00104929,299922.0
0.00104934,280148.0
0.00104939,261519.0
0.00104943,244024.00000000003
0.00104948,227657.0
0.00104952,212388.00000000003
0.0010495699999999999,198190.0
0.00104962,185107.0
0.00104966,172999.0
0.00104971,161813.0
0.00104975,151502.0
0.0010498,142011.0
0.00104985,133290.0
0.00104989,125284.0
0.00104994,117947.0
0.0010499799999999998,111220.99999999999
0.00105003,105065.00000000001
0.00105008,99227.2
0.00105013,93537.9
0.00105018,88376.90000000001
0.00105023,83693.3
0.0010502800000000002,79437.7
0.00105033,75567.2
0.0010504,70933.40000000001
0.00105046,66827.4
0.00105053,63174.5
0.0010506,59912.299999999996
0.00105067,56950.5
0.00105074,54285.8
0.00105083,51124.799999999996
0.0010509200000000001,48340.2
0.00105101,45868.5
0.0010511,43659.2
0.00105119,41671.7
0.00105129,39873.3
0.0010513900000000001,37950.6
0.00105152,35966.1
0.00105165,34197.0
0.00105177,32609.6
0.0010519000000000001,31176.9
0.00105208,29271.899999999998
0.0010522700000000001,27610.100000000002
0.0010524199999999999,26449.2
0.00105259,25244.9
0.00105276,24160.300000000003
0.00105301,22722.2
0.00105327,21472.000000000004
0.00105352,20375.899999999998
0.00105377,19407.600000000002
0.00105403,18546.6
0.00105428,17776.2
0.00105453,17083.4
0.00105487,16261.6
0.0010551999999999998,15572.0
0.00105565,14717.199999999999
0.00105611,13982.000000000002
0.00105657,13343.400000000001
0.00105702,12783.800000000001
0.00105748,12289.9
0.00105799,11805.000000000002
0.0010585,11376.599999999999
0.00105917,10877.4
0.00105985,10445.7
0.0010605599999999999,10051.1
0.00106131,9690.609999999999
0.00106205,9374.55
0.00106317,8967.67
0.00106439,8595.52
0.00106561,8281.57
0.00106683,8013.400000000001
0.0010680400000000001,7781.7699999999995
0.0010698700000000001,7488.11
0.0010717,7244.45
0.0010736,7032.09
0.0010756300000000002,6839.85
0.0010783400000000001,6627.13
0.00108105,6451.64
0.00108511,6239.88
0.00108917,6072.37
0.00109354,5927.46
0.00110001,5759.95
0.00110787,5608.240000000001
0.00111452,5516.47
0.0011169500000000002,5501.089999999999
0.00111828,5513.19
0.00111884,5535.9400000000005
0.00111918,5574.049999999999
0.00111935,5611.7
0.00111951,5678.38
0.00111963,5761.77
0.00111971,5839.58
0.0011197800000000001,5939.969999999999
0.00111986,6071.72
0.00111994,6243.42
0.0011200000000000001,6404.530000000001
0.00112005,6598.830000000001
0.00112011,6831.88
0.0011201700000000002,7109.71
