E(MeV),xs(mb)
1.0e-11,579805.0
1.03223e-11,570691.0
1.06549e-11,561724.0
1.0998399999999998e-11,552895.0
1.13527e-11,544208.0
1.1718599999999999e-11,535655.0
1.2096199999999998e-11,527240.0
1.24861e-11,518954.0
1.2888399999999999e-11,510802.0
1.3303799999999998e-11,502775.0
1.37325e-11,494878.0
1.41751e-11,487101.99999999994
1.4631799999999997e-11,479451.0
1.51034e-11,471919.0
1.5590099999999998e-11,464508.0
1.6092599999999998e-11,457211.00000000006
1.66111e-11,450031.0
1.71465e-11,442962.0
1.7699e-11,436007.00000000006
1.8269399999999998e-11,429160.0
1.88581e-11,422422.0
1.94659e-11,415789.0
2.00931e-11,409262.0
2.0740699999999998e-11,402836.0
2.1408999999999998e-11,396514.0
2.2099099999999997e-11,390289.0
2.28111e-11,384164.0
2.3546399999999998e-11,378134.0
2.4305099999999997e-11,372201.0
2.50884e-11,366360.0
2.5896799999999997e-11,360613.0
2.67315e-11,354954.0
2.75928e-11,349387.0
2.8482199999999998e-11,343906.0
2.93999e-11,338512.0
3.0347499999999995e-11,333203.0
3.13253e-11,327979.0
3.2335e-11,322836.0
3.33769e-11,317775.0
3.44526e-11,312793.0
3.55627e-11,307891.0
3.67089e-11,303065.0
3.7891799999999997e-11,298316.0
3.9113e-11,293641.0
4.0373400000000003e-11,289042.0
4.1674599999999996e-11,284513.0
4.3017399999999996e-11,280058.0
4.440389999999999e-11,275672.0
4.58347e-11,271356.0
4.7311899999999994e-11,267107.0
4.883639999999999e-11,262926.0
5.0410399999999995e-11,258811.0
5.20348e-11,254762.00000000003
5.37119e-11,250775.00000000003
5.54426e-11,246853.0
5.7229499999999995e-11,242992.0
5.907359999999999e-11,239193.0
6.09775e-11,235453.0
6.29424e-11,231773.0
6.497099999999999e-11,228150.0
6.70645e-11,224586.0
6.9226e-11,221077.0
7.145659999999999e-11,217625.0
7.37596e-11,214227.0
7.61364e-11,210883.00000000003
7.85902e-11,207591.0
8.11227e-11,204352.0
8.37372e-11,201164.0
8.643549999999999e-11,198028.0
8.922119999999998e-11,194940.0
9.209619999999999e-11,191902.0
9.506439999999999e-11,188911.0
9.81277e-11,185968.0
1.01291e-10,183072.0
1.04554e-10,180222.0
1.07924e-10,177417.0
1.11402e-10,174657.0
1.1499200000000001e-10,171940.0
1.1869700000000001e-10,169267.0
1.22523e-10,166635.0
1.26471e-10,164047.0
1.30547e-10,161498.0
1.34754e-10,158992.0
1.3909700000000002e-10,156524.0
1.43579e-10,154096.0
1.48207e-10,151706.0
1.52982e-10,149354.0
1.57913e-10,147040.0
1.6300100000000001e-10,144763.0
1.68254e-10,142521.0
1.73676e-10,140316.0
1.79274e-10,138146.0
1.8505000000000002e-10,136010.0
1.91014e-10,133909.0
1.97169e-10,131841.0
2.03524e-10,129804.99999999999
2.1008200000000003e-10,127803.0
2.16853e-10,125832.00000000001
2.2384e-10,123893.00000000001
2.31055e-10,121984.0
2.385e-10,120107.00000000001
2.46187e-10,118259.0
2.5412e-10,116441.0
2.6231e-10,114650.99999999999
2.70762e-10,112891.00000000001
2.7948900000000003e-10,111158.0
2.88494e-10,109454.0
2.9779300000000004e-10,107776.0
3.07388e-10,106125.0
3.1729500000000004e-10,104501.0
3.27519e-10,102902.99999999999
3.38075e-10,101330.00000000001
3.4896900000000003e-10,99782.1
3.6021600000000004e-10,98259.1
3.7182300000000004e-10,96760.90000000001
3.83807e-10,95286.2
3.96174e-10,93835.5
4.08943e-10,92407.8
4.2212e-10,91003.1
4.3572499999999996e-10,89620.70000000001
4.4976500000000005e-10,88260.79999999999
4.6426100000000007e-10,86922.3
4.79221e-10,85605.49999999999
4.94666e-10,84309.6
5.10605e-10,83034.70000000001
5.270620000000001e-10,81780.00000000001
5.440450000000001e-10,80545.6
5.6158e-10,79330.7
5.796750000000001e-10,78135.59999999999
5.98358e-10,76959.3
6.176389999999999e-10,75802.1
6.37545e-10,74663.3
6.58089e-10,73542.9
6.79298e-10,72440.2
7.01188e-10,71355.4
7.237860000000001e-10,70287.8
7.47109e-10,69237.4
7.71188e-10,68203.7
7.960380000000001e-10,67186.7
8.21693e-10,66185.8
8.48171e-10,65201.1
8.75507e-10,64231.99999999999
9.037190000000002e-10,63278.600000000006
9.32845e-10,62340.200000000004
9.62904e-10,61417.0
9.93937e-10,60508.4
1.0259700000000001e-9,59614.5
1.05903e-9,58734.799999999996
1.09316e-9,57869.200000000004
1.12839e-9,57017.3
1.16475e-9,56179.2
1.2022900000000002e-9,55354.299999999996
1.2410300000000002e-9,54542.700000000004
1.28103e-9,53743.9
1.3223100000000002e-9,52958.0
1.36492e-9,52184.600000000006
1.4118900000000002e-9,51373.2
1.4604800000000001e-9,50575.6
1.51073e-9,49791.600000000006
1.5627200000000002e-9,49020.9
1.61649e-9,48263.299999999996
1.6721200000000002e-9,47518.5
1.72966e-9,46786.399999999994
1.78918e-9,46066.700000000004
1.85075e-9,45359.299999999996
1.9144300000000004e-9,44663.8
1.98031e-9,43980.2
2.04845e-9,43308.1
2.11894e-9,42647.5
2.1918600000000003e-9,41998.0
2.26728e-9,41359.6
2.3453e-9,40731.9
2.4260100000000004e-9,40114.9
2.50949e-9,39508.4
2.59584e-9,38912.1
2.68517e-9,38325.9
2.77757e-9,37749.700000000004
2.87315e-9,37183.1
2.9720200000000002e-9,36626.2
3.07429e-9,36078.700000000004
3.18008e-9,35540.5
3.28951e-9,35011.299999999996
3.4027000000000003e-9,34491.1
3.5198e-9,33979.7
3.6409200000000003e-9,33476.9
3.7662000000000005e-9,32982.7
3.8958000000000005e-9,32496.7
4.02986e-9,32019.000000000004
4.1685400000000006e-9,31549.399999999998
4.31198e-9,31087.600000000002
4.46036e-9,30633.7
4.61385e-9,30187.4
4.7726100000000005e-9,29748.7
4.93685e-9,29317.3
5.10673e-9,28893.300000000003
5.282460000000001e-9,28476.3
5.46423e-9,28066.399999999998
5.65226e-9,27663.4
5.84676e-9,27267.199999999997
6.04796e-9,26877.7
6.256080000000001e-9,26494.7
6.47135e-9,26118.199999999997
6.694040000000001e-9,25748.000000000004
6.92439e-9,25384.1
7.162670000000001e-9,25026.199999999997
7.40914e-9,24674.399999999998
7.6641e-9,24328.5
7.92783e-9,23988.399999999998
8.200640000000001e-9,23654.0
8.50077e-9,23304.9
8.81192e-9,22961.9
9.13443e-9,22625.199999999997
9.46877e-9,22294.399999999998
9.81532e-9,21969.5
1.01746e-8,21650.399999999998
1.0547e-8,21337.0
1.0933e-8,21029.2
1.13331e-8,20726.9
1.1748e-8,20429.9
1.21779e-8,20138.2
1.26237e-8,19851.7
1.3085700000000001e-8,19570.399999999998
1.3564700000000001e-8,19293.899999999998
1.40611e-8,19022.5
1.4575800000000002e-8,18755.8
1.51092e-8,18493.8
1.56623e-8,18236.5
1.62355e-8,17983.8
1.6829799999999998e-8,17735.5
1.74457e-8,17491.600000000002
1.80843e-8,17252.1
1.87461e-8,17016.8
1.94323e-8,16785.600000000002
2.0143499999999998e-8,16558.600000000002
2.0880800000000003e-8,16335.599999999999
2.1645e-8,16116.5
2.2437299999999997e-8,15901.300000000001
2.32585e-8,15690.0
2.4109799999999998e-8,15482.3
2.50451e-8,15266.4
2.52522e-8,15220.199999999999
2.5299999999999998e-8,15209.699999999999
2.6281500000000003e-8,14998.9
2.73011e-8,14792.0
2.83603e-8,14588.9
2.94605e-8,14389.7
3.06034e-8,14194.1
3.17907e-8,14002.1
3.3024e-8,13813.7
3.43052e-8,13628.800000000001
3.5636e-8,13447.4
3.70185e-8,13269.3
3.84547e-8,13094.5
3.99465e-8,12922.9
4.1496199999999994e-8,12754.5
4.3106099999999994e-8,12589.2
4.4778399999999994e-8,12427.0
4.65156e-8,12267.8
4.8320100000000004e-8,12111.5
5.0194700000000004e-8,11958.1
5.22525e-8,11799.2
5.4394400000000006e-8,11643.4
5.66244e-8,11490.499999999998
5.8945499999999997e-8,11340.6
6.136210000000001e-8,11193.5
6.38774e-8,11049.3
6.649610000000001e-8,10907.9
6.92219e-8,10769.1
7.20597e-8,10633.0
7.50136e-8,10499.6
7.808880000000001e-8,10368.599999999999
8.128980000000001e-8,10240.199999999999
8.46224e-8,10114.099999999999
8.80912e-8,9990.51
9.170260000000002e-8,9869.220000000001
9.566390000000001e-8,9744.04
9.97964e-8,9621.35
1.04107e-7,9501.07
1.0860399999999998e-7,9383.13
1.13296e-7,9267.47
1.1818999999999999e-7,9154.06
1.23296e-7,9042.859999999999
1.28622e-7,8933.81
1.34178e-7,8826.88
1.3997399999999998e-7,8722.0
1.4601999999999998e-7,8619.130000000001
1.5264999999999998e-7,8513.24
1.59582e-7,8409.46
1.66827e-7,8307.75
1.7440199999999998e-7,8208.04
1.8232099999999998e-7,8110.31
1.9059999999999997e-7,8014.4800000000005
1.99254e-7,7920.56
2.0830099999999998e-7,7828.47
2.1775899999999998e-7,7738.139999999999
2.27647e-7,7649.49
2.38487e-7,7558.42
2.49843e-7,7469.15
2.61741e-7,7381.62
2.7420399999999996e-7,7295.81
2.87262e-7,7211.65
3.0094e-7,7129.1
3.1527099999999996e-7,7048.12
3.30284e-7,6968.66
3.46011e-7,6890.6900000000005
3.63254e-7,6810.71
3.8135799999999997e-7,6732.26
4.00363e-7,6655.29
4.2031599999999994e-7,6579.799999999999
4.41262e-7,6505.72
4.632539999999999e-7,6432.929999999999
4.863389999999999e-7,6361.45
5.10578e-7,6291.24
5.371579999999999e-7,6219.29
5.651209999999999e-7,6148.65
5.9454e-7,6079.259999999999
6.254909999999999e-7,6011.099999999999
6.58053e-7,5944.110000000001
6.9231e-7,5878.2699999999995
7.283509999999999e-7,5813.53
7.662679999999999e-7,5749.87
8.07863e-7,5684.66
8.517200000000001e-7,5620.53
8.979539999999999e-7,5557.47
9.46701e-7,5495.4400000000005
9.98091e-7,5434.43
1.0571799999999999e-6,5369.08
1.13389e-6,5290.9800000000005
1.2419599999999999e-6,5191.950000000001
1.37959e-6,5080.57
1.56498e-6,4951.2
1.8129399999999999e-6,4806.0
2.1599699999999997e-6,4640.25
2.5733e-6,4482.280000000001
3.0658799999999996e-6,4331.91
3.6525699999999996e-6,4189.4
4.3517400000000005e-6,4054.38
5.18449e-6,3926.82
6.176899999999999e-6,3807.0
7.41082e-6,3690.4300000000003
8.89123e-6,3581.73
1.0742100000000002e-5,3476.66
1.3069800000000001e-5,3374.86
1.6126300000000002e-5,3272.35
2.00378e-5,3170.2
2.57851e-5,3050.42
4.299660000000001e-5,2738.74
4.91186e-5,2610.52
5.380010000000001e-5,2495.5
5.770380000000001e-5,2383.31
6.10298e-5,2271.87
6.409840000000001e-5,2152.43
6.63816e-5,2050.69
6.87494e-5,1931.57
7.070290000000001e-5,1821.5300000000002
7.2712e-5,1696.9099999999999
7.6903e-5,1415.33
7.7988e-5,1349.95
7.85342e-5,1322.3400000000001
7.908820000000001e-5,1300.25
7.964220000000001e-5,1286.65
7.9959e-5,1284.02
8.0382e-5,1288.16
8.0664e-5,1296.94
8.09461e-5,1311.6399999999999
8.123010000000001e-5,1333.63
8.15161e-5,1364.48
8.17306e-5,1394.3300000000002
8.19451e-5,1430.98
8.215960000000001e-5,1475.6100000000001
8.237360000000001e-5,1529.27
8.258730000000001e-5,1593.42
8.2801e-5,1669.87
8.29913e-5,1749.97
8.313090000000002e-5,1816.92
8.330220000000001e-5,1909.8500000000001
8.34798e-5,2020.42
8.364470000000001e-5,2137.89
8.380330000000002e-5,2266.19
8.391750000000001e-5,2369.05
8.40697e-5,2521.55
8.41966e-5,2663.62
8.43235e-5,2820.9900000000002
8.445040000000001e-5,2995.48
8.457720000000001e-5,3189.1600000000003
8.469140000000001e-5,3381.83
8.480560000000001e-5,3593.9
8.49198e-5,3827.5899999999997
8.5034e-5,4085.47
8.51482e-5,4370.4400000000005
8.52624e-5,4685.86
8.537660000000002e-5,5035.580000000001
8.549080000000001e-5,5424.05
8.558590000000001e-5,5781.06
8.568110000000002e-5,6171.98
8.57762e-5,6600.7
8.58714e-5,7071.7
8.59665e-5,7590.07
8.606170000000001e-5,8161.7
8.61568e-5,8793.380000000001
8.6252e-5,9492.97
8.63472e-5,10269.6
8.64423e-5,11134.1
8.65343e-5,12064.999999999998
8.66199e-5,13027.599999999999
8.67056e-5,14095.800000000001
8.67912e-5,15284.3
8.68483e-5,16151.9
8.690540000000001e-5,17086.7
8.696249999999999e-5,18095.3
8.703860000000002e-5,19567.9
8.711480000000001e-5,21205.6
8.71655e-5,22400.899999999998
8.72162e-5,23688.5
8.7267e-5,25077.600000000002
8.73177e-5,26578.7
8.736850000000002e-5,28203.5
8.743510000000001e-5,30546.4
8.74795e-5,32256.7
8.75239e-5,34099.6
8.756830000000002e-5,36088.5
8.761270000000001e-5,38238.9
8.765710000000001e-5,40568.1
8.77015e-5,43096.2
8.775550000000001e-5,46466.1
8.780300000000001e-5,49748.5
8.785060000000001e-5,53360.200000000004
8.789820000000002e-5,57345.9
8.79458e-5,61758.100000000006
8.799400000000001e-5,66727.8
8.8027e-5,70456.4
8.806e-5,74484.5
8.809300000000001e-5,78844.7
8.812590000000001e-5,83574.5
8.81589e-5,88717.1
8.819190000000002e-5,94322.0
8.822490000000001e-5,100447.0
8.82541e-5,106352.0
8.82922e-5,114836.0
8.83175e-5,121046.00000000001
8.83429e-5,127757.00000000001
8.836830000000001e-5,135027.0
8.839370000000001e-5,142920.0
8.841900000000001e-5,151515.0
8.844440000000001e-5,160900.0
8.84672e-5,170109.0
8.849010000000001e-5,180135.0
8.851290000000002e-5,191083.0
8.85358e-5,203077.0
8.85586e-5,216265.00000000003
8.858140000000001e-5,230821.0
8.86043e-5,246956.0
8.862710000000001e-5,264920.0
8.864740000000001e-5,282664.0
8.866770000000002e-5,302339.0
8.868800000000002e-5,324241.0
8.870320000000001e-5,342335.0
8.871850000000001e-5,362042.0
8.87337e-5,383553.0
8.87489e-5,407080.0
8.876410000000001e-5,432859.0
8.877940000000001e-5,461158.0
8.879390000000001e-5,490915.00000000006
8.88073e-5,520585.0
8.88206e-5,552891.0
8.883390000000002e-5,588092.0
8.88472e-5,626470.0
8.886060000000001e-5,668329.0
8.887390000000001e-5,713995.0
8.88872e-5,763814.0
8.890050000000001e-5,818154.0
8.891380000000001e-5,877402.0
8.892720000000001e-5,941961.0
8.89379e-5,998401.0
8.895060000000002e-5,1.06992e6
8.896330000000002e-5,1.14733e6
8.897600000000001e-5,1.23101e6
8.898870000000002e-5,1.32134e6
8.900140000000001e-5,1.4187e6
8.90141e-5,1.52345e6
8.902680000000001e-5,1.63594e6
8.904120000000002e-5,1.77402e6
8.90575e-5,1.94205e6
8.907370000000001e-5,2.12432e6
8.90899e-5,2.32118e6
8.91082e-5,2.56032e6
8.912340000000001e-5,2.77389e6
8.91437e-5,3.07847e6
8.9164e-5,3.40473e6
8.91894e-5,3.84037e6
8.92199e-5,4.39718e6
8.927060000000002e-5,5.3744e6
8.931120000000001e-5,6.1549e6
8.93417e-5,6.70771e6
8.9362e-5,7.04843e6
8.938230000000001e-5,7.35927e6
8.940260000000001e-5,7.63403e6
8.942290000000001e-5,7.86701e6
8.944720000000001e-5,8.08456e6
8.94655e-5,8.199479999999999e6
8.94858e-5,8.275869999999999e6
8.95028e-5,8.29716e6
8.95183e-5,8.282410000000001e6
8.953860000000001e-5,8.2142e6
8.95579e-5,8.099489999999999e6
8.957610000000002e-5,7.94817e6
8.959540000000001e-5,7.74655e6
8.961570000000001e-5,7.49222e6
8.963600000000001e-5,7.20007e6
8.96665e-5,6.70424e6
8.969690000000001e-5,6.15864e6
8.97781e-5,4.62232e6
8.98086e-5,4.06846e6
8.98289e-5,3.71749e6
8.984920000000001e-5,3.3845e6
8.986950000000001e-5,3.07158e6
8.988980000000001e-5,2.78011e6
8.990500000000001e-5,2.57605e6
8.991970000000001e-5,2.39076e6
8.993420000000001e-5,2.2201e6
8.99486e-5,2.06061e6
8.99631e-5,1.91203e6
8.99776e-5,1.77403e6
8.998720000000002e-5,1.68771e6
9.000240000000001e-5,1.5603e6
9.001760000000002e-5,1.44327e6
9.00329e-5,1.33601e6
9.004810000000001e-5,1.23792e6
9.006330000000002e-5,1.14836e6
9.007860000000002e-5,1.0667e6
9.009380000000001e-5,992336.0000000001
9.0109e-5,924660.0000000001
9.012420000000001e-5,863104.0
9.01395e-5,807124.9999999999
9.015470000000001e-5,756213.0
9.01699e-5,709891.0
9.01851e-5,667717.0
9.02003e-5,629285.0
9.02156e-5,594222.0
9.023080000000001e-5,562190.0
9.0246e-5,532879.0
9.026130000000002e-5,506013.99999999994
9.027770000000001e-5,479380.99999999994
9.029680000000002e-5,451483.0
9.031580000000001e-5,426258.0
9.033480000000002e-5,403374.0
9.03539e-5,382546.0
9.037290000000002e-5,363525.0
9.03983e-5,340613.0
9.04237e-5,320113.0
9.044900000000001e-5,301676.0
9.04744e-5,285015.0
9.0501e-5,269169.0
9.052770000000002e-5,254789.00000000003
9.055430000000001e-5,241684.0
9.0581e-5,229696.0
9.061650000000001e-5,215224.0
9.065200000000001e-5,202243.0
9.06876e-5,190542.0
9.072310000000001e-5,179948.0
9.075860000000002e-5,170318.0
9.08043e-5,159162.0
9.08499e-5,149193.0
9.089560000000002e-5,140241.0
9.09413e-5,132165.0
9.0987e-5,124851.0
9.103270000000001e-5,118202.0
9.10783e-5,112135.99999999999
9.1124e-5,106585.0
9.11811e-5,100279.99999999999
9.123820000000001e-5,94590.9
9.129530000000002e-5,89437.09999999999
9.13524e-5,84751.3
9.140950000000001e-5,80476.6
9.146660000000001e-5,76564.5
9.155220000000001e-5,71287.90000000001
9.161250000000001e-5,67945.5
9.167590000000001e-5,64715.7
9.177110000000002e-5,60355.2
9.18662e-5,56493.799999999996
9.196140000000001e-5,53055.8
9.205650000000001e-5,49979.8
9.21422e-5,47478.7
9.225e-5,44640.3
9.23579e-5,42100.5
9.246570000000001e-5,39816.799999999996
9.257350000000002e-5,37754.3
9.268140000000002e-5,35884.4
9.27892e-5,34183.1
9.289710000000001e-5,32630.2
9.30144e-5,31088.7
9.314130000000002e-5,29574.699999999997
9.32682e-5,28199.399999999998
9.339510000000002e-5,26945.7
9.358540000000001e-5,25261.8
9.377570000000001e-5,23778.899999999998
9.3966e-5,22464.9
9.41563e-5,21293.899999999998
9.43466e-5,20244.9
9.453690000000001e-5,19300.8
9.472720000000002e-5,18447.3
9.498100000000002e-5,17430.8
9.52323e-5,16541.0
9.54835e-5,15748.0
9.57348e-5,15036.7
9.5986e-5,14396.4
9.6321e-5,13636.900000000001
9.666070000000001e-5,12959.300000000001
9.70005e-5,12359.800000000001
9.73402e-5,11826.2
9.76799e-5,11348.5
9.819670000000001e-5,10711.4
9.871350000000001e-5,10163.3
9.923270000000001e-5,9685.1
9.975680000000001e-5,9262.96
0.000100281,8891.14
0.00010081,8558.490000000002
0.000101518,8169.420000000001
0.00010223199999999999,7829.46
0.000102951,7530.53
0.00010367400000000001,7266.110000000001
0.000104768,6923.05
0.000105876,6630.02
0.000106995,6378.15
0.000107745,6229.53
0.00010926499999999999,5968.5199999999995
0.00011080600000000001,5746.65
0.00011236900000000001,5556.3099999999995
0.00011395500000000002,5391.37
0.000116378,5181.17
0.00011884600000000001,5006.52
0.000121373,4858.46
0.00012482200000000002,4693.469999999999
0.000128369,4556.59
0.000132941,4415.2300000000005
0.00013857500000000002,4278.79
0.000144523,4165.849999999999
0.00015178700000000002,4057.4700000000003
0.00016165300000000002,3944.44
0.000174019,3837.3599999999997
0.00019195,3718.42
0.00021073300000000003,3601.6400000000003
0.00021750300000000002,3541.7900000000004
0.00022117,3492.4300000000003
0.000223709,3441.1200000000003
0.00022576900000000004,3378.6800000000003
0.00022824300000000002,3276.31
0.000228497,3273.02
0.000228741,3278.29
0.00022897500000000002,3298.1699999999996
0.00022914400000000003,3329.45
0.00022925000000000002,3361.13
0.000229356,3407.54
0.00022943600000000002,3456.95
0.00022951500000000001,3525.78
0.000229587,3613.72
0.000229635,3693.24
0.000229682,3797.28
0.000229718,3897.35
0.00022975400000000004,4022.7000000000003
0.000229778,4124.0199999999995
0.00022980200000000003,4242.77
0.000229826,4382.31
0.00022984900000000001,4546.57
0.000229873,4740.1900000000005
0.00022989700000000004,4968.57
0.00022991700000000003,5189.969999999999
0.00022993700000000002,5443.990000000001
0.00022995700000000003,5735.280000000001
0.00022997700000000002,6069.0
0.00022999700000000001,6450.910000000001
0.00023001600000000001,6887.349999999999
0.00023003000000000002,7212.01
0.000230043,7566.21
0.000230056,7952.27
0.00023007,8372.730000000001
0.000230083,8830.1
0.000230096,9327.17
0.000230109,9866.73
0.000230123,10451.900000000001
0.000230136,11085.5
0.000230149,11771.0
0.00023016200000000004,12511.4
0.00023017599999999999,13310.2
0.00023018900000000003,14170.8
0.00023020200000000002,15096.8
0.00023021500000000003,16091.5
0.00023022900000000003,17158.7
0.00023024200000000002,18301.8
0.000230255,19524.399999999998
0.00023026800000000003,20829.9
0.00023028200000000003,22221.8
0.00023029500000000002,23703.4
0.000230315,26100.8
0.000230332,28355.399999999998
0.000230348,30587.6
0.00023036400000000002,32968.9
0.00023038500000000002,36382.1
0.00023040600000000003,40072.5
0.00023042699999999998,44043.9
0.000230449,48296.299999999996
0.00023047,52826.899999999994
0.00023049800000000001,59246.299999999996
0.000230525,65981.4
0.00023056000000000002,74949.0
0.000230601,86375.4
0.000230665,104828.00000000001
0.00023073100000000002,123911.0
0.00023077100000000003,134974.0
0.000230802,142862.0
0.000230837,150952.0
0.000230871,157658.0
0.000230897,161872.0
0.000230922,165311.0
0.00023094700000000004,167922.0
0.00023097200000000002,169618.0
0.00023100100000000002,170538.0
0.00023101,170588.0
0.000231037,170033.0
0.00023106800000000002,168189.0
0.00023109000000000004,166079.0
0.00023111700000000003,162632.0
0.00023114900000000002,157408.0
0.00023117800000000001,151779.0
0.00023121399999999999,143735.0
0.000231247,135550.0
0.000231291,123857.0
0.00023140700000000002,90867.5
0.00023145,79378.4
0.000231486,70169.2
0.000231513,63675.100000000006
0.00023154,57575.5
0.00023156700000000001,51894.600000000006
0.00023158500000000003,48347.4
0.000231607,44233.6
0.00023162699999999998,40810.700000000004
0.000231647,37621.7
0.000231667,34661.200000000004
0.00023168700000000003,31923.8
0.00023170600000000003,29401.199999999997
0.00023172600000000002,27084.800000000003
0.00023174600000000001,24964.6
