E(MeV),xs(mb)
1.0e-11,528205.0
1.03223e-11,519895.99999999994
1.06549e-11,511721.0
1.0998399999999998e-11,503671.0
1.13527e-11,495751.99999999994
1.1718599999999999e-11,487954.00000000006
1.2096199999999998e-11,480281.99999999994
1.24861e-11,472728.00000000006
1.2888399999999999e-11,465294.99999999994
1.3303799999999998e-11,457977.0
1.37325e-11,450776.0
1.41751e-11,443687.0
1.4631799999999997e-11,436711.0
1.51034e-11,429843.0
1.5590099999999998e-11,423085.0
1.6092599999999998e-11,416432.0
1.66111e-11,409884.99999999994
1.71465e-11,403439.0
1.7699e-11,397097.0
1.8269399999999998e-11,390853.0
1.88581e-11,384709.0
1.94659e-11,378660.0
2.00931e-11,372708.0
2.0740699999999998e-11,366848.0
2.1408999999999998e-11,361081.0
2.2099099999999997e-11,355404.0
2.28111e-11,349818.0
2.3546399999999998e-11,344319.0
2.4305099999999997e-11,338907.0
2.50884e-11,333580.0
2.5896799999999997e-11,328337.0
2.67315e-11,323176.0
2.75928e-11,318098.0
2.8482199999999998e-11,313098.0
2.93999e-11,308178.0
3.0347499999999995e-11,303334.0
3.13253e-11,298568.0
3.2335e-11,293876.0
3.33769e-11,289259.0
3.44526e-11,284714.0
3.55627e-11,280241.0
3.67089e-11,275837.0
3.7891799999999997e-11,271505.0
3.9113e-11,267239.0
4.0373400000000003e-11,263041.0
4.1674599999999996e-11,258909.0
4.3017399999999996e-11,254843.00000000003
4.440389999999999e-11,250840.0
4.58347e-11,246901.0
4.7311899999999994e-11,243023.0
4.883639999999999e-11,239207.0
5.0410399999999995e-11,235451.0
5.20348e-11,231754.00000000003
5.37119e-11,228114.99999999997
5.54426e-11,224534.0
5.7229499999999995e-11,221009.0
5.907359999999999e-11,217539.99999999997
6.09775e-11,214125.0
6.29424e-11,210765.0
6.497099999999999e-11,207457.0
6.70645e-11,204202.0
6.9226e-11,200997.0
7.145659999999999e-11,197844.0
7.37596e-11,194740.0
7.61364e-11,191685.0
7.85902e-11,188679.0
8.11227e-11,185720.0
8.37372e-11,182807.0
8.643549999999999e-11,179941.0
8.922119999999998e-11,177119.0
9.209619999999999e-11,174343.0
9.506439999999999e-11,171609.0
9.81277e-11,168920.0
1.01291e-10,166272.0
1.04554e-10,163667.0
1.07924e-10,161102.0
1.11402e-10,158579.0
1.1499200000000001e-10,156095.0
1.1869700000000001e-10,153651.0
1.22523e-10,151244.0
1.26471e-10,148877.0
1.30547e-10,146546.0
1.34754e-10,144252.0
1.3909700000000002e-10,141994.0
1.43579e-10,139773.0
1.48207e-10,137586.0
1.52982e-10,135434.0
1.57913e-10,133316.0
1.6300100000000001e-10,131232.0
1.68254e-10,129180.0
1.73676e-10,127160.99999999999
1.79274e-10,125174.00000000001
1.8505000000000002e-10,123218.99999999999
1.91014e-10,121293.99999999999
1.97169e-10,119400.0
2.03524e-10,117536.0
2.1008200000000003e-10,115701.00000000001
2.16853e-10,113894.99999999999
2.2384e-10,112118.99999999999
2.31055e-10,110369.99999999999
2.385e-10,108649.0
2.46187e-10,106955.0
2.5412e-10,105288.0
2.6231e-10,103648.0
2.70762e-10,102034.0
2.7948900000000003e-10,100445.0
2.88494e-10,98881.5
2.9779300000000004e-10,97342.6
3.07388e-10,95828.5
3.1729500000000004e-10,94338.20000000001
3.27519e-10,92871.90000000001
3.38075e-10,91428.49999999999
3.4896900000000003e-10,90008.40000000001
3.6021600000000004e-10,88610.6
3.7182300000000004e-10,87235.3
3.83807e-10,85881.6
3.96174e-10,84549.8
4.08943e-10,83238.8
4.2212e-10,81949.0
4.3572499999999996e-10,80679.5
4.4976500000000005e-10,79430.5
4.6426100000000007e-10,78201.09999999999
4.79221e-10,76991.6
4.94666e-10,75801.1
5.10605e-10,74629.8
5.270620000000001e-10,73477.0
5.440450000000001e-10,72342.8
5.6158e-10,71226.5
5.796750000000001e-10,70128.2
5.98358e-10,69047.2
6.176389999999999e-10,67983.8
6.37545e-10,66937.1
6.58089e-10,65907.3
6.79298e-10,64893.799999999996
7.01188e-10,63896.7
7.237860000000001e-10,62915.4
7.47109e-10,61949.899999999994
7.71188e-10,60999.8
7.960380000000001e-10,60065.0
8.21693e-10,59144.9
8.48171e-10,58239.799999999996
8.75507e-10,57349.1
9.037190000000002e-10,56472.7
9.32845e-10,55610.299999999996
9.62904e-10,54761.8
9.93937e-10,53926.8
1.0259700000000001e-9,53105.200000000004
1.05903e-9,52296.8
1.09316e-9,51501.4
1.12839e-9,50718.7
1.16475e-9,49948.6
1.2022900000000002e-9,49190.8
1.2410300000000002e-9,48445.299999999996
1.28103e-9,47711.6
1.3223100000000002e-9,46989.799999999996
1.36492e-9,46279.5
1.4089000000000002e-9,45580.600000000006
1.4543100000000001e-9,44892.899999999994
1.5011699999999999e-9,44216.4
1.5495600000000002e-9,43550.6
1.5994900000000002e-9,42895.6
1.6510400000000001e-9,42251.0
1.7042400000000001e-9,41616.9
1.75917e-9,40992.8
1.81585e-9,40378.9
1.87438e-9,39774.7
1.9347700000000003e-9,39180.4
1.99713e-9,38595.4
2.06148e-9,38020.0
2.1279200000000002e-9,37453.7
2.19649e-9,36896.6
2.26728e-9,36348.3
2.3403400000000002e-9,35808.9
2.4157700000000002e-9,35278.1
2.49362e-9,34755.9
2.5739800000000002e-9,34242.0
2.65692e-9,33736.4
2.7425500000000002e-9,33238.8
2.8309300000000003e-9,32749.3
2.92217e-9,32267.600000000002
3.01633e-9,31793.6
3.11354e-9,31327.2
3.21387e-9,30868.3
3.3174500000000004e-9,30416.699999999997
3.42435e-9,29972.4
3.53471e-9,29535.100000000002
3.6563500000000005e-9,29076.5
3.78217e-9,28625.600000000002
3.91231e-9,28182.5
4.0469400000000005e-9,27746.9
4.1862e-9,27318.699999999997
4.330250000000001e-9,26897.899999999998
4.47926e-9,26484.2
4.6334e-9,26077.499999999996
4.7928400000000006e-9,25677.8
4.95777e-9,25284.9
5.128370000000001e-9,24898.699999999997
5.3048400000000005e-9,24519.000000000004
5.487390000000001e-9,24145.8
5.6762200000000005e-9,23779.0
5.871540000000001e-9,23418.399999999998
6.07359e-9,23063.899999999998
6.28259e-9,22715.399999999998
6.49878e-9,22372.899999999998
6.7224100000000006e-9,22036.2
6.9537400000000004e-9,21705.199999999997
7.19302e-9,21379.899999999998
7.440540000000001e-9,21060.0
7.696580000000001e-9,20745.6
7.96143e-9,20436.6
8.235390000000001e-9,20132.7
8.51878e-9,19834.1
8.81192e-9,19540.5
9.11515e-9,19251.8
9.42882e-9,18968.100000000002
9.753270000000001e-9,18689.2
1.0088900000000001e-8,18415.0
1.0436099999999999e-8,18145.5
1.0795200000000001e-8,17880.5
1.11667e-8,17620.0
1.15509e-8,17363.9
1.1948399999999999e-8,17112.2
1.23596e-8,16864.7
1.27849e-8,16621.399999999998
1.3224800000000002e-8,16382.300000000001
1.36799e-8,16147.199999999999
1.41506e-8,15915.999999999998
1.46376e-8,15688.800000000001
1.51413e-8,15465.4
1.56623e-8,15245.800000000001
1.62012e-8,15029.9
1.67588e-8,14817.7
1.73354e-8,14609.0
1.7931999999999998e-8,14403.900000000001
1.8549e-8,14202.2
1.91873e-8,14004.0
1.98476e-8,13809.1
2.05306e-8,13617.5
2.1282e-8,13417.5
2.2060900000000003e-8,13221.0
2.2868300000000003e-8,13028.1
2.37054e-8,12838.6
2.4573e-8,12652.6
2.52522e-8,12513.7
2.5299999999999998e-8,12504.1
2.6226099999999998e-8,12324.1
2.71859e-8,12147.2
2.8181e-8,11973.6
2.9212400000000002e-8,11802.999999999998
3.0281600000000004e-8,11635.5
3.13899e-8,11471.0
3.2538900000000006e-8,11309.499999999998
3.37297e-8,11150.800000000001
3.4964300000000004e-8,10995.0
3.6244000000000003e-8,10842.0
3.7570600000000004e-8,10691.699999999999
3.89456e-8,10544.1
4.03712e-8,10399.099999999999
4.1848700000000003e-8,10256.8
4.33805e-8,10117.0
4.4968199999999994e-8,9979.699999999999
4.66141e-8,9844.849999999999
4.8320100000000004e-8,9712.42
5.008880000000001e-8,9582.35
5.1922e-8,9454.61
5.38225e-8,9329.140000000001
5.57923e-8,9205.93
5.78345e-8,9084.91
6.00782e-8,8959.12
6.240890000000001e-8,8835.72
6.482999999999999e-8,8714.66
6.73451e-8,8595.88
6.99578e-8,8479.36
7.267179999999999e-8,8365.05
7.54911e-8,8252.9
7.84198e-8,8142.87
8.14621e-8,8034.9400000000005
8.46224e-8,7929.04
8.790530000000001e-8,7825.15
9.13156e-8,7723.22
9.48582e-8,7623.22
9.85382e-8,7525.1
1.0236099999999999e-7,7428.82
1.06332e-7,7334.360000000001
1.10457e-7,7241.6900000000005
1.1474200000000001e-7,7150.76
1.19446e-7,7056.650000000001
1.24343e-7,6964.400000000001
1.2944e-7,6874.0
1.34746e-7,6785.389999999999
1.4027e-7,6698.57
1.4601999999999998e-7,6613.46
1.52006e-7,6530.0599999999995
1.58238e-7,6448.33
1.6472399999999999e-7,6368.23
1.71477e-7,6289.73
1.78506e-7,6212.799999999999
1.8582399999999998e-7,6137.39
1.93441e-7,6063.469999999999
2.01372e-7,5991.01
2.1007099999999998e-7,5916.29
2.19145e-7,5843.14
2.2861199999999998e-7,5771.51
2.38487e-7,5701.39
2.48789e-7,5632.73
2.59536e-7,5565.509999999999
2.70747e-7,5499.7
2.82443e-7,5435.26
2.94644e-7,5372.17
3.07372e-7,5310.4
3.20649e-7,5249.94
3.35208e-7,5187.83
3.50429e-7,5127.09
3.6634e-7,5067.67
3.82974e-7,5009.52
4.00363e-7,4952.650000000001
4.1854199999999994e-7,4897.03
4.37546e-7,4842.62
4.5741399999999997e-7,4789.4
4.79195e-7,4734.89
5.02013e-7,4681.639999999999
5.25919e-7,4629.62
5.50962e-7,4578.79
5.77198e-7,4529.110000000001
6.04683e-7,4480.57
6.33477e-7,4433.150000000001
6.636429999999999e-7,4386.83
6.967139999999999e-7,4339.55
7.31438e-7,4293.400000000001
7.67888e-7,4248.33
8.061579999999999e-7,4204.33
8.463319999999999e-7,4161.39
8.903909999999999e-7,4117.67
9.36743e-7,4075.0200000000004
9.85508e-7,4033.4300000000003
1.0351699999999999e-6,3994.15
1.10256e-6,3945.2
1.19084e-6,3887.3700000000003
1.30441e-6,3821.7599999999998
1.4591099999999998e-6,3745.19
1.66678e-6,3659.32
1.94449e-6,3567.19
2.33293e-6,3466.16
2.8187099999999996e-6,3370.43
3.4294899999999997e-6,3280.1200000000003
4.231499999999999e-6,3192.8
5.18449e-6,3115.85
6.44204e-6,3041.63
8.06068e-6,2972.63
1.0300000000000001e-5,2904.84
1.3162000000000002e-5,2844.33
1.7055800000000004e-5,2786.96
2.2730500000000002e-5,2730.5899999999997
3.05056e-5,2679.36
4.15178e-5,2631.78
5.770380000000001e-5,2586.52
8.190530000000002e-5,2543.86
0.00011956100000000002,2502.89
0.000179487,2463.26
0.00028498,2420.1600000000003
0.0005991950000000001,2322.0
0.000711069,2273.79
0.0007855220000000001,2228.0099999999998
0.0008339,2184.35
0.000864351,2143.71
0.000884461,2104.97
0.000907156,2050.0099999999998
0.000909741,2048.47
0.000912327,2052.9700000000003
0.000914194,2063.35
0.000915702,2079.4
0.000917211,2106.86
0.0009182880000000002,2137.48
0.000919365,2182.3100000000004
0.000920083,2223.6099999999997
0.000920802,2277.83
0.0009213400000000001,2329.85
0.0009218790000000001,2394.77
0.000922418,2476.63
0.000922777,2543.34
0.0009232,2638.11
0.0009235670000000001,2737.66
0.0009239330000000002,2858.15
0.0009241770000000001,2952.98
0.0009244210000000001,3062.05
0.0009246650000000001,3188.29
0.00092491,3335.45
0.0009251250000000001,3486.58
0.0009253410000000001,3662.2
0.0009255559999999999,3868.05
0.0009257,4025.7300000000005
0.0009258430000000001,4203.03
0.000925987,4403.44
0.0009261310000000001,4631.24
0.0009262740000000002,4891.68
0.0009263820000000001,5112.29
0.0009264900000000001,5358.139999999999
0.000926597,5633.04
0.000926705,5941.42
0.000926813,6288.41
0.0009269209999999999,6679.9400000000005
0.000927028,7122.8
0.000927136,7624.7699999999995
0.000927235,8144.33
0.0009273160000000001,8617.13
0.0009273960000000001,9137.75
0.000927477,9711.08
0.000927558,10342.4
0.000927639,11037.4
0.0009277200000000002,11801.900000000001
0.0009278000000000001,12642.199999999999
0.0009278810000000001,13564.7
0.000927962,14576.199999999999
0.0009280430000000001,15683.400000000001
0.0009281290000000001,16971.9
0.0009282170000000001,18427.4
0.0009283049999999999,20022.4
0.000928394,21765.0
0.000928482,23662.100000000002
0.0009285780000000001,25912.199999999997
0.0009286530000000001,27794.1
0.0009287280000000001,29796.6
0.00092884,33028.5
0.0009289260000000001,35700.2
0.000929041,39507.1
0.0009291560000000001,43580.0
0.000929299,49008.799999999996
0.000929472,55929.3
0.000929931,75246.6
0.0009301040000000001,82153.50000000001
0.000930276,88462.0
0.000930391,92201.2
0.000930506,95478.90000000001
0.0009306210000000001,98227.6
0.0009307410000000001,100481.0
0.000930862,102035.00000000001
0.000930956,102739.0
0.000931063,102982.0
0.000931167,102654.0
0.0009312900000000001,101549.0
0.0009313980000000002,99974.3
0.0009315060000000001,97865.59999999999
0.0009316430000000001,94456.6
0.000931781,90352.9
0.000931942,84855.0
0.0009321030000000001,78797.1
0.000932425,65864.1
0.000932643,57117.4
0.000932816,50538.4
0.000932964,45241.0
0.000933096,40836.7
0.0009331950000000002,37754.6
0.0009332940000000001,34869.8
0.0009333930000000001,32185.100000000002
0.0009334590000000001,30506.3
0.0009335540000000001,28250.4
0.000933649,26170.399999999998
0.0009337440000000001,24260.0
0.0009338380000000001,22511.5
0.0009339330000000001,20916.100000000002
0.000934028,19464.2
0.000934123,18146.100000000002
0.0009342180000000001,16951.6
0.000934325,15731.699999999999
0.000934433,14644.2
0.000934541,13675.5
0.0009346480000000001,12812.9
0.000934756,12044.2
0.000934864,11358.699999999999
0.000934972,10746.500000000002
0.000935079,10198.6
0.0009351870000000001,9707.19
0.000935295,9265.29
0.0009354380000000001,8742.59
0.000935582,8284.599999999999
0.000935726,7881.0
0.000935869,7523.25
0.0009360130000000001,7204.31
0.0009361570000000001,6918.41
0.0009363720000000001,6541.29
0.000936516,6318.91
0.000936717,6040.03
0.000936918,5793.1900000000005
0.000937119,5573.22
0.000937421,5284.889999999999
0.000937722,5037.3099999999995
0.0009380240000000001,4822.58
0.0009382720000000001,4666.53
0.000938566,4501.089999999999
0.000939008,4286.570000000001
0.0009394500000000001,4104.61
0.0009398910000000001,3948.5800000000004
0.0009403330000000001,3813.5
0.0009408390000000001,3679.56
0.0009411980000000001,3595.8199999999997
0.000941917,3451.02
0.0009426349999999999,3330.45
0.000943353,3228.7200000000003
0.000944071,3141.87
0.000945149,3033.29
0.0009462260000000001,2944.67
0.00094759,2853.53
0.000948955,2779.82
0.0009510020000000002,2692.58
0.00095312,2623.0099999999998
0.000954557,2584.43
0.00095743,2522.13
0.000960446,2471.8399999999997
0.000963463,2432.1000000000004
0.0009677720000000001,2387.62
0.0009746660000000001,2335.5
0.0009838590000000001,2286.62
0.000997649,2235.33
0.00101603,2185.39
0.00109839,2008.49
0.00112693,1937.17
0.0011483399999999999,1874.5400000000002
0.00116974,1800.89
0.00118402,1743.86
0.0012018500000000002,1661.25
0.00121791,1573.38
0.00122861,1506.29
0.00123932,1431.49
0.00125002,1348.63
0.0012660800000000002,1212.21
0.0012741,1143.91
0.00127945,1103.01
0.00128347,1077.96
0.00128614,1065.7
0.0012888200000000002,1058.51
0.00129016,1057.39
0.00129239,1060.4199999999998
0.0012946200000000002,1070.8999999999999
0.00129629,1084.8899999999999
0.0012979600000000001,1105.66
0.00129958,1133.58
0.00130108,1167.98
0.00130209,1196.28
0.00130309,1229.56
0.0013041,1268.52
0.0013051,1313.98
0.0013061000000000001,1366.88
0.00130711,1428.34
0.00130794,1487.01
0.00130878,1553.3799999999999
0.00130961,1628.42
0.00131045,1713.25
0.0013112900000000001,1809.19
0.00131212,1917.84
0.00131296,2041.07
0.0013135900000000001,2144.3599999999997
0.00131436,2287.06
0.00131493,2402.8399999999997
0.0013154999999999998,2529.4
0.0013160700000000001,2667.8700000000003
0.00131664,2819.5299999999997
0.00131721,2985.8199999999997
0.00131778,3168.3500000000004
0.00131834,3368.9900000000002
0.0013188100000000001,3549.3100000000004
0.00131928,3744.7
0.00131975,3956.67
0.00132022,4186.9
0.00132069,4437.33
0.00132115,4710.06
0.0013216200000000001,5007.54
0.00132209,5332.4800000000005
0.00132263,5741.52
0.0013231599999999999,6195.87
0.0013237000000000001,6701.82
0.00132405,7071.349999999999
0.00132441,7469.55
0.00132477,7899.18
0.0013252600000000002,8547.06
0.00132573,9235.060000000001
0.00132619,10000.7
0.0013265100000000001,10559.7
0.00132682,11161.9
0.00132713,11811.6
0.00132744,12513.7
0.0013278399999999998,13501.9
0.00132825,14598.800000000001
0.0013286500000000002,15819.9
0.00132891,16711.899999999998
0.0013291800000000001,17673.5
0.00132945,18711.8
0.00132971,19786.2
0.00132995,20894.0
0.0013302000000000001,22088.0
0.00133044,23377.0
0.00133069,24771.100000000002
0.00133093,26281.3
0.00133118,27920.600000000002
0.00133142,29703.300000000003
0.00133165,31499.100000000002
0.00133186,33289.0
0.00133207,35222.0
0.00133228,37313.299999999996
0.00133249,39580.0
0.0013327,42041.6
0.00133291,44720.5
0.0013331200000000001,47642.0
0.00133331,50517.0
0.00133348,53295.899999999994
0.00133365,56291.799999999996
0.00133382,59527.1
0.00133398,63026.799999999996
0.0013341499999999999,66819.2
0.00133432,70935.8
0.00133449,75412.40000000001
0.0013346599999999999,80155.4
0.00133482,85174.0
0.0013349800000000002,90634.09999999999
0.00133514,96583.29999999999
0.0013353,103075.0
0.0013354600000000001,110166.99999999999
0.00133562,117926.0
0.00133578,126420.0
0.00133592,134651.0
0.00133605,142427.0
0.00133617,150780.0
0.0013363000000000001,159754.0
0.00133642,169394.0
0.00133655,179744.0
0.00133667,190853.0
0.0013368,202765.0
0.00133697,220302.0
0.00133713,238459.00000000003
0.00133729,258204.0
0.00133745,279610.0
0.00133761,302728.0
0.0013377699999999998,326876.0
0.0013379099999999999,351155.0
0.00133811,385760.0
0.00133831,422787.0
0.0013385,461988.0
0.0013388,524056.00000000006
0.00133947,670082.0
0.0013397300000000001,725162.0
0.00134,774901.0
0.00134019,805294.0
0.00134038,831190.9999999999
0.00134056,851946.0
0.0013407500000000001,867033.0
0.00134096,876714.0
0.00134113,878863.0
0.0013413,875763.0000000001
0.00134148,867310.0
0.00134165,853745.9999999999
0.00134182,835430.0
0.001342,812824.0
0.00134221,780040.0
0.0013424300000000001,742722.0
0.0013427500000000002,680794.0
0.0013434999999999999,527778.0
0.00134377,474120.99999999994
0.00134402,428714.0
0.00134421,396910.0
0.0013444000000000002,367179.0
0.0013445899999999999,339581.0
0.00134478,312951.0
0.001345,286497.0
0.00134514,270304.0
0.0013452800000000001,255211.0
0.0013454200000000002,241160.0
0.00134557,228096.0
0.00134571,215958.0
0.00134585,204686.0
0.00134603,191720.0
0.00134621,179902.0
0.00134639,169123.0
0.00134657,159283.0
0.0013467400000000001,150290.0
0.00134692,142059.0
0.0013471,134514.0
0.00134728,127586.0
0.0013475100000000001,119324.99999999999
0.00134775,111898.00000000001
0.00134798,105197.99999999999
0.00134822,99134.4
0.00134845,93629.59999999999
0.00134868,88616.8
0.00134892,84038.40000000001
0.0013491500000000001,79845.0
0.00134947,74676.90000000001
0.00134979,70053.09999999999
0.0013501099999999999,65898.0
0.0013504300000000001,62149.0
0.00135075,58753.200000000004
0.00135107,55666.700000000004
0.0013513800000000001,52851.7
0.0013517,50276.6
0.00135215,47026.0
0.0013526,44129.1
0.00135304,41535.1
0.0013534900000000002,39201.8
0.0013539300000000002,37094.5
0.0013543799999999999,35184.0
0.00135483,33445.8
0.00135527,31859.1
0.00135594,29725.0
0.00135661,27843.2
0.00135728,26174.0
0.00135795,24685.5
0.00135862,23351.7
0.00135917,22342.9
0.00135984,21239.8
0.00136051,20239.3
0.00136118,19328.399999999998
0.00136218,18106.5
0.00136319,17032.0
0.00136419,16081.4
0.00136508,15325.0
0.00136597,14640.3
0.00136731,13728.1
0.00136865,12931.8
0.00136999,12231.8
0.00137133,11612.199999999999
0.001373,10931.699999999999
0.0013746700000000001,10338.300000000001
0.00137634,9816.91
0.00137802,9355.83
0.00137969,8945.560000000001
0.0013813599999999999,8578.46
0.00138359,8145.59
0.00138582,7766.8
0.00138805,7433.13
0.0013905,7109.8
0.0013931800000000002,6799.26
0.00139586,6525.85
0.00139853,6283.64
0.00140255,5968.38
0.00140656,5699.78
0.00141057,5468.45
0.00141459,5267.32
0.0014186000000000001,5090.950000000001
0.0014244000000000001,4871.610000000001
0.00143064,4672.96
0.00143644,4515.4800000000005
0.00144447,4330.849999999999
0.00145249,4176.8
0.00146052,4046.4
0.00147123,3900.8500000000004
0.00148193,3780.19
0.00149263,3678.5800000000004
0.00150512,3578.86
0.00151939,3483.5099999999998
0.0015408,3368.41
0.00156221,3277.5
0.0015907500000000001,3182.39
0.00162553,3094.21
0.001663,3021.59
0.0017120500000000001,2949.7599999999998
0.0017744899999999999,2882.94
0.00185441,2821.9500000000003
0.00196127,2765.55
0.00209524,2718.33
0.0022860299999999997,2675.46
0.00256573,2637.4300000000003
0.0029911,2612.19
0.003,2611.9
0.0036650299999999997,2623.4700000000003
0.00376782,2618.04
0.00379738,2607.05
0.00381019,2593.2400000000002
0.00381783,2574.6600000000003
0.00382292,2548.79
0.00382495,2534.9300000000003
0.00382563,2534.52
0.00382623,2541.6
0.0038268200000000003,2563.35
0.00382722,2591.9
0.00382762,2637.57
0.0038279200000000003,2686.89
0.0038282200000000002,2752.56
