E(MeV),xs(mb)
1.0e-11,133784.0
1.03223e-11,131686.0
1.06549e-11,129623.0
1.0998399999999998e-11,127591.00000000001
1.13527e-11,125591.99999999999
1.1718599999999999e-11,123624.0
1.2096199999999998e-11,121688.0
1.24861e-11,119782.00000000001
1.2888399999999999e-11,117907.0
1.3303799999999998e-11,116060.00000000001
1.37325e-11,114243.99999999999
1.41751e-11,112455.0
1.4631799999999997e-11,110696.0
1.51034e-11,108963.00000000001
1.5590099999999998e-11,107259.0
1.6092599999999998e-11,105580.99999999999
1.66111e-11,103929.99999999999
1.71465e-11,102305.0
1.7699e-11,100706.0
1.8269399999999998e-11,99131.59999999999
1.88581e-11,97582.90000000001
1.94659e-11,96058.2
2.00931e-11,94558.09999999999
2.0740699999999998e-11,93081.4
2.1408999999999998e-11,91628.5
2.2099099999999997e-11,90198.2
2.28111e-11,88791.0
2.3546399999999998e-11,87405.7
2.4305099999999997e-11,86042.79999999999
2.50884e-11,84701.2
2.5896799999999997e-11,83381.2
2.67315e-11,82081.9
2.75928e-11,80803.49999999999
2.8482199999999998e-11,79545.1
2.93999e-11,78307.0
3.0347499999999995e-11,77088.40000000001
3.13253e-11,75889.3
3.2335e-11,74709.1
3.33769e-11,73548.0
3.44526e-11,72405.0
3.55627e-11,71280.59999999999
3.67089e-11,70173.8
3.7891799999999997e-11,69084.9
3.9113e-11,68013.1
4.0373400000000003e-11,66958.59999999999
4.1674599999999996e-11,65920.8
4.3017399999999996e-11,64899.7
4.440389999999999e-11,63894.700000000004
4.58347e-11,62906.00000000001
4.7311899999999994e-11,61932.9
4.883639999999999e-11,60975.6
5.0410399999999995e-11,60033.399999999994
5.20348e-11,59106.50000000001
5.37119e-11,58194.299999999996
5.54426e-11,57296.8
5.7229499999999995e-11,56413.6
5.907359999999999e-11,55544.700000000004
6.09775e-11,54689.6
6.29424e-11,53848.399999999994
6.497099999999999e-11,53020.6
6.70645e-11,52206.200000000004
6.9226e-11,51404.8
7.145659999999999e-11,50616.5
7.37596e-11,49840.7
7.61364e-11,49077.6
7.85902e-11,48326.6
8.11227e-11,47588.0
8.37372e-11,46861.100000000006
8.643549999999999e-11,46146.1
8.922119999999998e-11,45442.600000000006
9.209619999999999e-11,44750.6
9.506439999999999e-11,44069.700000000004
9.81277e-11,43400.0
1.01291e-10,42740.9
1.04554e-10,42092.9
1.07924e-10,41455.1
1.11402e-10,40828.0
1.1499200000000001e-10,40210.9
1.1869700000000001e-10,39604.0
1.22523e-10,39006.9
1.26471e-10,38419.8
1.30547e-10,37842.0
1.34754e-10,37273.9
1.3909700000000002e-10,36715.0
1.43579e-10,36165.4
1.48207e-10,35624.7
1.52982e-10,35093.0
1.57913e-10,34570.0
1.6300100000000001e-10,34055.7
1.68254e-10,33549.799999999996
1.73676e-10,33052.4
1.79274e-10,32563.100000000002
1.8505000000000002e-10,32082.0
1.91014e-10,31608.800000000003
1.97169e-10,31143.7
2.03524e-10,30686.100000000002
2.1008200000000003e-10,30236.2
2.16853e-10,29793.8
2.2384e-10,29358.9
2.31055e-10,28931.100000000002
2.385e-10,28510.7
2.46187e-10,28097.1
2.5412e-10,27690.7
2.6231e-10,27291.0
2.70762e-10,26898.1
2.7948900000000003e-10,26511.7
2.88494e-10,26132.0
2.98422e-10,25734.0
3.08691e-10,25343.300000000003
3.1931300000000003e-10,24959.5
3.30301e-10,24582.8
3.41667e-10,24212.899999999998
3.5342400000000004e-10,23849.7
3.6558600000000004e-10,23493.2
3.78167e-10,23143.1
3.9118e-10,22799.5
4.04641e-10,22462.2
4.18565e-10,22131.0
4.32968e-10,21805.9
4.4786700000000005e-10,21486.9
4.63279e-10,21173.7
4.79221e-10,20866.2
4.95711e-10,20564.5
5.127690000000001e-10,20268.4
5.304140000000001e-10,19977.7
5.48666e-10,19692.4
5.67547e-10,19412.5
5.870770000000001e-10,19137.7
6.072790000000001e-10,18868.100000000002
6.281760000000001e-10,18603.5
6.49792e-10,18343.9
6.72152e-10,18089.1
6.95282e-10,17839.100000000002
7.19207e-10,17593.7
7.439560000000001e-10,17353.0
7.69556e-10,17116.8
7.960380000000001e-10,16885.0
8.234299999999999e-10,16657.6
8.51766e-10,16434.5
8.829430000000001e-10,16202.0
9.152570000000001e-10,15974.2
9.48759e-10,15750.900000000001
9.83482e-10,15532.1
1.01948e-9,15317.6
1.05679e-9,15107.5
1.09547e-9,14901.599999999999
1.13557e-9,14699.800000000001
1.17713e-9,14502.0
1.22021e-9,14308.300000000001
1.26488e-9,14118.3
1.31117e-9,13932.199999999999
1.35916e-9,13749.800000000001
1.4089000000000002e-9,13571.1
1.4604800000000001e-9,13395.900000000001
1.5139300000000002e-9,13224.199999999999
1.56934e-9,13056.000000000002
1.6302200000000002e-9,12881.499999999998
1.6934700000000002e-9,12710.6
1.75917e-9,12543.4
1.82741e-9,12379.7
1.8983100000000002e-9,12219.4
1.9719500000000004e-9,12062.5
2.04845e-9,11908.9
2.1279200000000002e-9,11758.5
2.21048e-9,11611.199999999999
2.29623e-9,11467.0
2.3853100000000003e-9,11325.9
2.47785e-9,11187.6
2.57942e-9,11044.8
2.68517e-9,10905.1
2.7952400000000004e-9,10768.5
2.90983e-9,10634.8
3.0291100000000005e-9,10504.1
3.1532900000000004e-9,10376.2
3.2825500000000004e-9,10251.1
3.41713e-9,10128.699999999999
3.5572e-9,10008.900000000001
3.70303e-9,9891.74
3.85482e-9,9777.11
4.021340000000001e-9,9659.11
4.195050000000001e-9,9543.789999999999
4.37627e-9,9431.08
4.56531e-9,9320.91
4.76252e-9,9213.23
4.9682500000000005e-9,9107.97
5.182870000000001e-9,9005.08
5.40675e-9,8904.5
5.65226e-9,8801.32
5.908890000000001e-9,8700.570000000002
6.1772100000000004e-9,8602.17
6.4576700000000005e-9,8506.09
6.7509e-9,8412.25
7.057410000000001e-9,8320.62
7.3778800000000006e-9,8231.12
7.7292e-9,8139.599999999999
8.097250000000002e-9,8050.3099999999995
8.482830000000001e-9,7963.19
8.886770000000002e-9,7878.2
9.309950000000001e-9,7795.27
9.753270000000001e-9,7714.349999999999
1.02393e-8,7631.86
1.07496e-8,7551.4400000000005
1.1285300000000001e-8,7473.07
1.18478e-8,7396.67
1.24382e-8,7322.2
1.3058099999999999e-8,7249.6
1.3737900000000002e-8,7175.79
1.4453e-8,7103.919999999999
1.52054e-8,7033.929999999999
1.5997e-8,6965.76
1.6829799999999998e-8,6899.38
1.77433e-8,6832.08
1.87066e-8,6766.6
1.9722e-8,6702.9
2.0792700000000003e-8,6640.92
2.19678e-8,6578.25
2.3209399999999998e-8,6517.33
2.4521099999999997e-8,6458.13
2.52522e-8,6427.18
2.5299999999999998e-8,6425.2
2.6786500000000003e-8,6366.44
2.83603e-8,6309.38
3.00266e-8,6253.97
3.17907e-8,6200.17
3.37297e-8,6146.03
3.5787e-8,6093.5
3.79699e-8,6042.55
4.03712e-8,5991.39
4.29242e-8,5941.82
4.5638800000000005e-8,5893.79
4.86277e-8,5845.67
5.18124e-8,5799.08
5.53224e-8,5752.51
5.907040000000001e-8,5707.46
6.30721e-8,5663.89
6.74875e-8,5620.42
7.22121e-8,5578.42
7.743109999999999e-8,5536.59
8.302699999999999e-8,5496.22
8.9216e-8,5456.11
9.58662e-8,5417.44
1.0322999999999999e-7,5379.08
1.1115999999999998e-7,5342.13
1.19952e-7,5305.53
1.2944e-7,5270.31
1.3997399999999998e-7,5235.490000000001
1.51685e-7,5201.139999999999
1.6437600000000002e-7,5168.15
1.78506e-7,5135.65
1.94261e-7,5103.6900000000005
2.1140699999999998e-7,5073.070000000001
2.3055299999999999e-7,5043.0
2.51966e-7,5013.5
2.75949e-7,4984.63
3.0285499999999997e-7,4956.41
3.33089e-7,4928.87
3.6711599999999996e-7,4902.03
4.0547399999999994e-7,4875.91
4.4878999999999993e-7,4850.54
4.97785e-7,4825.89
5.53297e-7,4802.0
6.163e-7,4778.86
6.893889999999999e-7,4756.070000000001
7.72776e-7,4734.08
8.68082e-7,4712.900000000001
9.79278e-7,4692.14
1.13389e-6,4668.42
1.43881e-6,4633.21
2.115e-6,4583.53
3.45352e-6,4530.84
6.00623e-6,4481.4400000000005
1.1203200000000001e-5,4433.259999999999
2.2730500000000002e-5,4380.9800000000005
4.91186e-5,4316.41
0.00012469300000000002,4196.95
0.00023920499999999998,4021.7099999999996
0.000307814,3891.13
0.00035791100000000004,3770.42
0.000396688,3651.4
0.000423762,3547.29
0.00044675700000000005,3437.2400000000002
0.00046571100000000005,3324.73
0.00048249100000000004,3201.4
0.000496474,3076.46
0.00051605,2875.56
0.0005212939999999999,2831.8500000000004
0.00052479,2815.82
0.0005258390000000001,2814.65
0.0005282860000000001,2821.8
0.000530121,2839.75
0.000531956,2873.42
0.0005331800000000001,2907.9
0.000534403,2954.99
0.0005356270000000001,3018.3399999999997
0.0005368500000000001,3102.79
0.000537768,3183.81
0.000538686,3283.7200000000003
0.000539603,3407.0299999999997
0.000540215,3505.43
0.000540958,3645.99
0.000541613,3792.78
0.0005422690000000001,3965.23
0.0005429240000000001,4168.52
0.000543361,4324.32
0.000543798,4499.0
0.000544235,4695.2699999999995
0.0005446720000000001,4916.35
0.000545109,5166.03
0.000545546,5448.85
0.000545983,5770.21
0.0005463110000000001,6040.39
0.000546639,6339.14
0.0005469660000000001,6670.18
0.000547294,7037.860000000001
0.000547644,7476.16
0.000547906,7840.38
0.000548168,8239.029999999999
0.00054843,8676.33
0.0005486919999999999,9157.130000000001
0.0005489550000000001,9686.949999999999
0.000549217,10272.2
0.0005494790000000001,10920.2
0.0005497060000000001,11539.3
0.0005499950000000001,12412.9
0.000550187,13057.2
0.000550379,13757.5
0.000550571,14520.1
0.000550764,15352.300000000001
0.000550956,16262.4
0.000551148,17259.899999999998
0.000551384,18620.2
0.000551542,19621.3
0.000551699,20707.5
0.000551856,21888.399999999998
0.0005520130000000001,23174.800000000003
0.000552171,24579.300000000003
0.000552328,26116.5
0.0005524680000000001,27607.7
0.000552651,29766.8
0.000552774,31349.6
0.000552896,33061.4
0.000553018,34916.4
0.000553141,36930.6
0.000553263,39122.6
0.000553386,41513.4
0.00055349,43739.600000000006
0.000553595,46147.600000000006
0.0005537000000000001,48757.6
0.000553805,51592.799999999996
0.00055391,54679.6
0.000554015,58048.6
0.0005541200000000001,61735.2
0.000554225,65780.4
0.000554345,70938.4
0.0005544260000000001,74717.90000000001
0.0005545060000000001,78804.4
0.000554586,83231.7
0.000554667,88038.3
0.000554747,93268.1
0.000554828,98970.90000000001
0.00055492,106203.0
0.000554999,112969.99999999999
0.000555078,120387.0
0.000555156,128535.0
0.000555235,137503.0
0.0005552870000000001,143988.0
0.000555357,153330.0
0.000555427,163547.0
0.0005554970000000001,174734.0
0.0005555670000000001,186993.0
0.0005556370000000001,200439.0
0.0005557070000000001,215192.0
0.000555777,231381.0
0.000555847,249142.00000000003
0.0005559170000000001,268616.0
0.000555986,289948.0
0.000556056,313282.0
0.000556126,338758.0
0.000556196,366513.0
0.000556266,396664.0
0.000556336,429314.0
0.000556406,464540.00000000006
0.000556476,502386.99999999994
0.000556546,542860.0
0.000556616,585918.0
0.000556721,655126.0
0.000556825,729343.0
0.0005569650000000001,834448.0000000001
0.000557245,1.05259e6
0.0005573850000000001,1.15627e6
0.0005574900000000001,1.2272e6
0.000557574,1.27795e6
0.000557671,1.32877e6
0.000557755,1.36398e6
0.000557825,1.38678e6
0.000557892,1.40261e6
0.000557987,1.41471e6
0.00055803,1.41602e6
0.0005581080000000001,1.41182e6
0.000558203,1.39557e6
0.000558266,1.37822e6
0.000558353,1.34602e6
0.000558441,1.30525e6
0.000558528,1.25702e6
0.000558615,1.20257e6
0.0005587410000000001,1.11593e6
0.000558951,959890.0
0.0005591190000000001,834248.0
0.000559244,744120.0
0.000559335,682566.0
0.000559433,620297.0
0.000559507,576589.0
0.00055958,535564.0
0.000559654,497260.0
0.000559741,455189.0
0.000559804,427220.0
0.000559867,401132.00000000006
0.00055993,376851.0
0.000559993,354295.0
0.000560056,333374.0
0.0005601180000000001,313992.0
0.0005601810000000001,296054.0
0.000560251,277695.0
0.000560321,260867.0
0.000560391,245443.0
0.000560461,231300.99999999997
0.0005605310000000001,218328.0
0.0005606010000000001,206418.0
0.000560671,195473.0
0.000560765,182037.0
0.000560839,172506.0
0.000560938,160984.0
0.000561037,150657.0
0.0005611360000000001,141369.0
0.000561234,132988.0
0.000561333,125399.0
0.0005614320000000001,118506.0
0.000561531,112225.0
0.0005616320000000001,106327.0
0.000561734,100933.0
0.000561869,94427.29999999999
0.0005620050000000001,88603.2
0.00056214,83365.50000000001
0.0005622760000000001,78635.59999999999
0.0005624110000000001,74348.0
0.000562547,70447.4
0.000562702,66396.2
0.000562877,62293.3
0.0005630510000000001,58612.9
0.000563226,55297.200000000004
0.000563401,52298.200000000004
0.0005635760000000001,49575.6
0.000563751,47095.6
0.000563925,44829.299999999996
0.0005641,42752.2
0.0005643620000000001,39945.7
0.000564624,37458.7
0.000564887,35243.1
0.000565149,33259.8
0.000565411,31476.3
0.0005657079999999999,29662.8
0.0005660050000000001,28039.0
0.000566303,26578.300000000003
0.0005666000000000001,25258.9
0.000566897,24062.7
0.000567194,22974.5
0.00056764,21517.1
0.000568007,20451.600000000002
0.0005684440000000001,19317.4
0.000568881,18307.7
0.000569318,17404.5
0.000569755,16592.899999999998
0.0005701920000000001,15860.4
0.000570629,15196.7
0.000571284,14311.400000000001
0.000571939,13537.699999999999
0.0005725950000000001,12856.8
0.00057325,12253.8
0.000573906,11716.599999999999
0.00057478,11086.400000000001
0.000575697,10512.5
0.0005766149999999999,10012.7
0.0005775330000000001,9574.210000000001
0.0005784500000000001,9185.88
0.000579674,8733.31
0.000580723,8394.880000000001
0.000581771,8094.379999999999
0.00058317,7742.8
0.000584568,7437.53
0.000585966,7170.21
0.000588064,6826.53
0.000590161,6537.39
0.000592434,6272.0
0.000594793,6038.21
0.000597153,5837.17
0.00059995,5632.679999999999
0.000602746,5457.410000000001
0.0006069410000000001,5236.55
0.0006111360000000001,5053.82
0.0006139330000000001,4948.26
0.000619526,4766.93
0.000625119,4615.99
0.0006307120000000001,4486.7699999999995
0.0006370750000000001,4359.62
0.000647237,4187.42
0.0006574,4040.5899999999997
0.000674337,3828.64
0.000735313,3143.65
0.000748863,2992.01
0.000755638,2925.04
0.000762067,2876.54
0.0007665130000000001,2859.13
0.000767917,2857.7200000000003
0.000771093,2865.14
0.000774269,2891.19
0.000776492,2924.83
0.000778715,2975.82
0.000780938,3049.15
0.00078242,3113.85
0.000783902,3194.28
0.0007853840000000001,3293.8
0.0007868660000000001,3416.6400000000003
0.000787978,3527.22
0.000789089,3656.67
0.000790201,3808.3300000000004
0.0007913120000000001,3986.2799999999997
0.000792424,4195.48
0.0007931650000000001,4355.28
0.000793906,4533.83
0.000794647,4733.59
0.0007953880000000001,4957.25
0.000796129,5207.950000000001
0.0007968700000000001,5489.9800000000005
0.000797611,5808.7
0.0007982350000000001,6109.94
0.000798997,6523.42
0.000799506,6830.58
0.000800014,7166.280000000001
0.000800522,7534.099999999999
0.0008010300000000001,7937.98
0.0008015380000000001,8382.24
0.000802046,8871.779999999999
0.00080247,9318.369999999999
0.0008028930000000002,9804.119999999999
0.000803317,10333.300000000001
0.00080374,10910.800000000001
0.000804163,11542.300000000001
0.0008045870000000002,12233.9
0.0008050100000000001,12993.2
0.0008054340000000001,13828.5
0.0008057720000000001,14558.0
0.000806111,15348.0
0.0008064500000000001,16205.0
0.000806789,17136.2
0.0008071280000000001,18150.0
0.0008074660000000001,19255.8
0.000807805,20464.3
0.0008081440000000001,21787.899999999998
0.000808525,23432.1
0.0008089060000000001,25263.300000000003
0.000809287,27309.3
0.000809541,28808.8
0.0008097950000000001,30430.100000000002
0.0008100490000000001,32186.2
0.000810282,33926.9
0.0008106000000000001,36526.5
0.0008109170000000001,39421.2
0.000811235,42655.0
0.0008114470000000001,45024.6
0.0008116580000000001,47585.9
0.0008118700000000001,50359.4
0.000812149,54384.8
0.000812336,57326.4
0.0008125220000000001,60498.799999999996
0.000812708,63925.700000000004
0.000812895,67633.90000000001
0.0008130810000000001,71653.90000000001
0.000813267,76019.9
0.0008134370000000001,80322.20000000001
0.000813665,86694.8
0.000813894,93803.59999999999
0.0008140459999999999,99006.3
0.000814199,104624.0
0.0008143509999999999,110698.99999999999
0.0008145040000000001,117280.0
0.0008146480000000001,124008.99999999999
0.0008147830000000001,130846.0
0.0008149190000000001,138218.0
0.000815054,146181.0
0.00081519,154794.0
0.000815325,164122.0
0.0008154610000000001,174241.0
0.000815596,185234.0
0.0008157230000000001,196413.0
0.000815842,207685.0
0.00081596,219843.0
0.000816079,232967.0
0.0008161970000000001,247142.99999999997
0.000816316,262467.0
0.0008164350000000001,279038.0
0.000816553,296963.0
0.000816663,314916.0
0.000816816,342029.0
0.000816968,371984.0
0.0008171210000000001,405023.99999999994
0.000817273,441370.00000000006
0.0008174250000000001,481210.99999999994
0.000817553,517178.0
0.0008176800000000001,555698.0
0.000817849,610992.0
0.000818018,670572.0
0.000818188,733978.0
0.000818442,834545.0
0.000818886,1.01464e6
0.000819098,1.0948e6
0.000819257,1.14924e6
0.000819416,1.19692e6
0.0008195740000000001,1.23625e6
0.000819721,1.2639e6
0.0008198600000000002,1.2819e6
0.00082,1.29115e6
0.000820051,1.29229e6
0.0008201650000000001,1.29053e6
0.000820279,1.28282e6
0.000820394,1.26936e6
0.0008205080000000001,1.25046e6
0.000820631,1.22455e6
0.000820815,1.17612e6
0.000820999,1.11834e6
0.0008211840000000001,1.05379e6
0.00082149,938036.0
0.0008217950000000001,821852.0
0.000822049,729723.0
0.0008222530000000001,661207.0
0.0008224220000000001,608300.0
0.0008226000000000002,557103.0
0.0008227779999999999,510403.0
0.000822956,468072.99999999994
0.0008230740000000001,442170.00000000006
0.0008231930000000001,418021.0
0.00082332,393986.0
0.0008234550000000001,370311.0
0.000823591,348514.0
0.000823726,328446.0
0.000823862,309965.0
0.000823997,292937.0
0.000824133,277233.0
0.0008242680000000001,262737.0
0.0008244210000000001,247739.00000000003
0.0008245900000000002,232539.0
0.0008247590000000001,218714.0
0.0008249290000000001,206113.0
0.000825098,194604.0
0.000825268,184068.0
0.000825437,174403.0
0.000825606,165517.0
0.000825788,156744.0
0.000825983,148156.0
0.000826178,140301.0
0.0008263730000000001,133100.0
0.000826568,126481.0
0.00082686,117514.99999999999
0.000827152,109549.00000000001
0.000827389,103718.0
0.0008276680000000002,97482.90000000001
0.000827948,91850.90000000001
0.0008282270000000001,86746.3
0.0008285069999999999,82104.9
0.0008287860000000001,77871.4
0.0008290660000000002,73998.6
0.000829345,70445.7
0.0008296760000000001,66611.4
0.000830057,62617.700000000004
0.0008304380000000001,59025.100000000006
0.000830819,55780.9
0.0008311999999999999,52840.8
0.0008315810000000001,50167.200000000004
0.0008319620000000001,47728.200000000004
0.000832343,45496.600000000006
0.0008327450000000001,43340.1
0.000833169,41265.6
0.000833592,39368.4
0.000834227,36811.7
0.000834863,34552.5
0.000835498,32545.1
0.000836196,30583.7
0.0008367470000000001,29194.9
0.0008375730000000001,27333.0
0.000838398,25697.399999999998
0.000839224,24250.2
0.00084005,22961.0
0.000840748,21976.6
0.0008415950000000001,20897.199999999997
0.000842442,19927.8
0.0008432890000000001,19053.4
0.0008445589999999999,17889.9
0.00084583,16875.6
0.0008471,15986.0
0.0008483700000000001,15200.400000000001
0.0008496409999999999,14502.6
0.000850488,14079.5
0.000852181,13319.6
0.000853875,12657.5
0.000855569,12076.0
0.000857263,11561.9
0.0008589560000000001,11104.6
0.000861497,10506.800000000001
0.0008640370000000001,9995.210000000001
0.000866578,9554.289999999999
0.0008691190000000001,9168.56
0.0008708130000000001,8937.71
0.0008742000000000001,8528.88
0.0008775880000000001,8178.32
0.000880975,7874.59
0.000884362,7609.009999999999
0.000889444,7267.92
0.000894525,6981.07
0.0008996060000000001,6736.46
0.0009046880000000001,6525.32
0.000911463,6285.03
0.0009182370000000001,6081.41
0.0009250130000000001,5906.240000000001
0.000935175,5684.77
0.000945338,5500.82
0.000958888,5298.009999999999
0.000972437,5130.530000000001
0.000989375,4956.64
0.0010097,4784.469999999999
0.00103341,4618.15
0.0010639,4440.01
0.00110455,4241.97
0.00115642,4026.32
0.0012418800000000001,3712.35
0.0014942599999999999,2821.82
0.0015274700000000002,2718.17
0.00155403,2652.11
0.0015739600000000001,2621.29
0.00158724,2615.3
0.0015972,2622.48
0.00160551,2637.42
0.00161547,2671.6000000000004
0.00162294,2711.8799999999997
0.0016304099999999999,2768.7
0.00163788,2847.1099999999997
0.00164287,2914.6899999999996
0.00164785,2997.71
0.00165283,3099.7200000000003
0.00165656,3191.44
0.0016603000000000002,3298.52
0.00166404,3424.44
0.00166777,3573.6400000000003
0.0016715100000000002,3750.75
0.001674,3887.47
0.00167649,4041.8599999999997
0.00167898,4216.820000000001
0.00168147,4415.87
0.00168396,4643.3099999999995
0.0016864500000000001,4904.49
0.00168832,5126.44
0.00169019,5374.49
0.00169235,5699.01
0.00169396,5973.429999999999
0.0016955800000000001,6278.49
0.0016972,6618.400000000001
0.00169882,7000.21
0.00170044,7430.72
0.00170206,7917.24
