E(MeV),xs(mb)
1.0e-11,65249.8
1.03223e-11,64227.7
1.06549e-11,63222.2
1.0998399999999998e-11,62232.1
1.13527e-11,61258.2
1.1718599999999999e-11,60299.2
1.2096199999999998e-11,59355.799999999996
1.24861e-11,58426.9
1.2888399999999999e-11,57513.1
1.3303799999999998e-11,56613.4
1.37325e-11,55728.299999999996
1.41751e-11,54856.8
1.4631799999999997e-11,53999.49999999999
1.51034e-11,53155.5
1.5590099999999998e-11,52325.100000000006
1.6092599999999998e-11,51507.6
1.66111e-11,50703.3
1.71465e-11,49911.5
1.7699e-11,49132.5
1.8269399999999998e-11,48365.600000000006
1.88581e-11,47611.100000000006
1.94659e-11,46868.4
2.00931e-11,46137.7
2.0740699999999998e-11,45418.3
2.1408999999999998e-11,44710.6
2.2099099999999997e-11,44013.9
2.28111e-11,43328.5
2.3546399999999998e-11,42653.8
2.4305099999999997e-11,41990.100000000006
2.50884e-11,41336.6
2.5896799999999997e-11,40693.799999999996
2.67315e-11,40061.0
2.75928e-11,39438.5
2.8482199999999998e-11,38825.7
2.93999e-11,38222.8
3.0347499999999995e-11,37629.4
3.13253e-11,37045.6
3.2335e-11,36471.0
3.33769e-11,35905.7
3.44526e-11,35349.2
3.55627e-11,34801.799999999996
3.67089e-11,34263.0
3.7891799999999997e-11,33733.0
3.9113e-11,33211.3
4.0373400000000003e-11,32698.100000000002
4.1674599999999996e-11,32192.9
4.3017399999999996e-11,31696.0
4.440389999999999e-11,31206.999999999996
4.58347e-11,30725.899999999998
4.7311899999999994e-11,30252.4
4.883639999999999e-11,29786.600000000002
5.0410399999999995e-11,29328.2
5.20348e-11,28877.199999999997
5.37119e-11,28433.5
5.54426e-11,27996.9
5.7229499999999995e-11,27567.300000000003
5.907359999999999e-11,27144.7
6.09775e-11,26728.9
6.29424e-11,26319.8
6.497099999999999e-11,25917.3
6.70645e-11,25521.4
6.9226e-11,25131.800000000003
7.145659999999999e-11,24748.600000000002
7.37596e-11,24371.5
7.61364e-11,24000.6
7.85902e-11,23635.7
8.11227e-11,23276.7
8.37372e-11,22923.6
8.643549999999999e-11,22576.2
8.922119999999998e-11,22234.5
9.209619999999999e-11,21898.399999999998
9.506439999999999e-11,21567.699999999997
9.81277e-11,21242.5
1.01291e-10,20922.5
1.04554e-10,20608.0
1.07924e-10,20298.4
1.11402e-10,19994.0
1.1499200000000001e-10,19694.6
1.1869700000000001e-10,19400.2
1.22523e-10,19110.5
1.26471e-10,18825.7
1.30547e-10,18545.5
1.34754e-10,18270.1
1.3909700000000002e-10,17999.1
1.43579e-10,17732.8
1.48207e-10,17470.7
1.52982e-10,17213.1
1.57913e-10,16959.8
1.6300100000000001e-10,16710.7
1.68254e-10,16465.7
1.73676e-10,16225.0
1.79274e-10,15988.1
1.8505000000000002e-10,15755.4
1.91014e-10,15526.5
1.97169e-10,15301.499999999998
2.03524e-10,15080.199999999999
2.1008200000000003e-10,14862.800000000001
2.16853e-10,14649.0
2.2384e-10,14438.9
2.31055e-10,14232.3
2.385e-10,14029.199999999999
2.46707e-10,13816.5
2.5519599999999997e-10,13607.6
2.6397800000000004e-10,13402.5
2.73062e-10,13201.300000000001
2.82458e-10,13003.7
2.92178e-10,12809.699999999999
3.02232e-10,12619.3
3.1263200000000005e-10,12432.5
3.2339000000000006e-10,12249.099999999999
3.3451900000000004e-10,12069.099999999999
3.4603000000000004e-10,11892.400000000001
3.5793700000000003e-10,11719.1
3.70254e-10,11549.0
3.8299500000000003e-10,11382.099999999999
3.96174e-10,11218.300000000001
4.09807e-10,11057.6
4.2390900000000003e-10,10900.0
4.3849600000000005e-10,10745.3
4.53585e-10,10593.6
4.69194e-10,10444.7
4.85339e-10,10298.7
5.020400000000001e-10,10155.5
5.19316e-10,10015.0
5.371870000000001e-10,9877.19
5.55672e-10,9742.039999999999
5.747930000000001e-10,9609.5
5.94572e-10,9479.52
6.15032e-10,9352.050000000001
6.36196e-10,9227.050000000001
6.58089e-10,9104.480000000001
6.80734e-10,8984.3
7.056520000000001e-10,8859.16
7.31477e-10,8736.63
7.58252e-10,8616.630000000001
7.86002e-10,8499.15
8.14773e-10,8384.1
8.44592e-10,8271.470000000001
8.75507e-10,8161.18
9.07549e-10,8053.21
9.40768e-10,7947.49
9.75198e-10,7844.0
1.0108900000000002e-9,7742.68
1.04789e-9,7643.5
1.08625e-9,7546.389999999999
1.126e-9,7451.34
1.16722e-9,7358.29
1.2125e-9,7261.9
1.2595400000000002e-9,7167.66
1.3084000000000002e-9,7075.53
1.35916e-9,6985.45
1.4118900000000002e-9,6897.389999999999
1.4666600000000002e-9,6811.29
1.52356e-9,6727.1
1.58267e-9,6644.8
1.64407e-9,6564.33
1.7078500000000003e-9,6485.65
1.7741100000000002e-9,6408.719999999999
1.8468300000000001e-9,6329.379999999999
1.92254e-9,6251.88
2.00135e-9,6176.21
2.0834e-9,6102.29
2.1688e-9,6030.11
2.25772e-9,5959.59
2.35026e-9,5890.72
2.4466100000000005e-9,5823.45
2.5523e-9,5754.31
2.66255e-9,5686.860000000001
2.77757e-9,5621.04
2.89755e-9,5556.82
3.02272e-9,5494.150000000001
3.1532900000000004e-9,5432.99
3.28951e-9,5373.3
3.4388600000000003e-9,5312.17
3.5950200000000003e-9,5252.570000000001
3.75824e-9,5194.47
3.9288900000000005e-9,5137.81
4.107280000000001e-9,5082.58
4.2937800000000004e-9,5028.72
4.4887300000000005e-9,4976.19
4.7024800000000005e-9,4922.570000000001
4.92641e-9,4870.33
5.16099e-9,4819.4400000000005
5.40675e-9,4769.860000000001
5.66421e-9,4721.56
5.94651e-9,4672.38
6.24285e-9,4624.53
6.5539800000000006e-9,4577.950000000001
6.8805900000000005e-9,4532.61
7.223510000000001e-9,4488.4800000000005
7.59955e-9,4443.67
7.995170000000001e-9,4400.11
8.411390000000002e-9,4357.74
8.84927e-9,4316.54
9.329630000000001e-9,4274.83
9.83612e-9,4234.3
1.037e-8,4194.93
1.0933e-8,4156.67
1.15509e-8,4118.04
1.22037e-8,4080.54
1.28935e-8,4044.1399999999994
1.3651e-8,4007.47
1.4453e-8,3971.91
1.5302199999999998e-8,3937.43
1.62012e-8,3903.99
1.71894e-8,3870.38
1.8237900000000002e-8,3837.81
1.93503e-8,3806.27
2.0574e-8,3774.63
2.18751e-8,3744.0
2.33078e-8,3713.36
2.4834200000000003e-8,3683.73
2.52522e-8,3676.1
2.5299999999999998e-8,3675.2400000000002
2.69569e-8,3646.87
2.87832e-8,3618.5299999999997
3.07331e-8,3591.17
3.2884600000000005e-8,3563.89
3.51868e-8,3537.56
3.7729800000000003e-8,3511.37
4.04565e-8,3486.13
4.3472200000000005e-8,3461.0699999999997
4.67127e-8,3436.93
5.03011e-8,3413.02
5.41649e-8,3390.01
5.8449e-8,3367.25
6.32057e-8,3344.78
6.834920000000001e-8,3323.2
7.40679e-8,3301.92
8.04351e-8,3280.9900000000002
8.73493e-8,3260.9300000000003
9.50588e-8,3241.23
1.03668e-7,3221.91
1.13296e-7,3203.0
1.2407999999999998e-7,3184.5099999999998
1.35891e-7,3166.8500000000004
1.4914099999999997e-7,3149.62
1.64029e-7,3132.83
1.80785e-7,3116.4900000000002
1.99676e-7,3100.61
2.21474e-7,3084.9
2.46172e-7,3069.69
2.7420399999999996e-7,3055.0
3.06075e-7,3040.83
3.4309699999999997e-7,3026.9300000000003
3.85411e-7,3013.58
4.3478000000000003e-7,3000.54
4.925489999999999e-7,2987.87
5.59177e-7,2975.76
6.37507e-7,2964.04
7.29891e-7,2952.73
8.409819999999999e-7,2941.68
9.73084e-7,2931.1
1.16611e-6,2919.0
1.62073e-6,2899.6
2.85847e-6,2872.6699999999996
5.521989999999999e-6,2849.2000000000003
1.2185600000000002e-5,2828.33
3.27191e-5,2807.38
0.00011956100000000002,2772.4
0.00047606700000000005,2675.57
0.0010284,2549.93
0.00152859,2453.1299999999997
0.0015681,2449.17
0.00159404,2455.88
0.00160281,2468.7000000000003
0.00160807,2487.73
0.0016115699999999999,2513.54
0.0016142,2549.3700000000003
0.00161582,2586.04
0.00161694,2623.1
0.0016180600000000002,2676.31
0.0016189400000000001,2736.3900000000003
0.0016195900000000002,2798.34
0.0016200300000000002,2851.58
0.0016204700000000002,2918.4100000000003
0.0016209100000000001,3004.6
0.0016212400000000001,3087.6
0.00162146,3155.23
0.00162174,3261.67
0.00162191,3341.1
0.00162208,3435.09
0.00162225,3547.6200000000003
0.00162242,3683.85
0.00162255,3805.53
0.0016226799999999998,3947.7400000000002
0.0016228,4114.620000000001
0.00162293,4311.06
0.00162304,4498.34
0.0016231400000000001,4712.95
0.0016232500000000001,4958.929999999999
0.0016233500000000002,5240.68
0.00162343,5478.43
0.00162351,5741.16
0.00162359,6031.240000000001
0.00162367,6351.02
0.00162375,6703.03
0.00162382,7045.02
0.00162391,7513.87
0.00162399,8031.95
0.00162408,8602.72
0.0016241699999999999,9229.55
0.00162426,9915.56
0.00162434,10663.6
0.00162443,11476.0
0.00162452,12355.0
0.00162461,13301.8
0.00162469,14317.0
0.00162478,15400.5
0.00162487,16551.4
0.0016250000000000001,18399.1
0.00162513,20382.1
0.00162529,22857.6
0.00162547,25968.5
0.0016258800000000001,33002.799999999996
0.0016260200000000002,35306.9
0.0016261600000000002,37456.299999999996
0.0016263,39393.5
0.00162644,41064.0
0.00162654,42112.2
0.0016266499999999999,42964.799999999996
0.00162675,43607.2
0.00162687,44066.799999999996
0.001627,44231.99999999999
0.00162713,44057.700000000004
0.00162723,43676.6
0.00162736,42850.700000000004
0.00162749,41767.899999999994
0.0016276200000000002,40412.600000000006
0.0016277600000000002,38530.700000000004
0.00162794,35948.4
0.00162814,32744.100000000002
0.00162862,24444.2
0.00162878,21759.7
0.0016289100000000001,19773.7
0.00162903,17902.5
0.00162916,16159.699999999999
0.0016292400000000001,15073.7
0.00162933,14050.3
0.00162941,13090.3
0.0016295,12176.6
0.0016295900000000002,11312.199999999999
0.00162967,10513.8
0.00162976,9779.199999999999
0.00162985,9105.94
0.00162994,8491.099999999999
0.00163002,7931.530000000001
0.00163011,7423.860000000001
0.0016302,6942.84
0.0016303000000000001,6491.72
0.0016304000000000002,6090.099999999999
0.00163049,5733.42
0.0016305900000000001,5417.3099999999995
0.00163069,5137.63
0.0016307799999999999,4890.4800000000005
0.0016308800000000001,4672.259999999999
0.00163097,4494.61
0.00163109,4282.63
0.0016312100000000001,4101.09
0.00163133,3945.35
0.00163145,3811.33
0.00163157,3695.62
0.0016317299999999999,3564.76
0.00163189,3455.5699999999997
0.0016320500000000001,3363.56
0.00163222,3285.22
0.00163242,3201.94
0.00163272,3101.02
0.00163303,3020.94
0.00163343,2936.63
0.00163384,2870.4
0.0016342799999999999,2813.18
0.00163493,2746.95
0.0016355900000000001,2697.02
0.00163658,2642.1
0.00163756,2602.7999999999997
0.0016391,2560.5099999999998
0.00164085,2528.7999999999997
0.0016434800000000001,2499.1400000000003
0.00164681,2477.1899999999996
0.00165154,2459.77
0.00166346,2440.7999999999997
0.00169712,2424.65
0.00199864,2369.2700000000004
0.00274275,2255.41
0.00358284,2145.88
0.00449027,2045.0
0.00552978,1945.9599999999998
0.006687,1851.5600000000002
0.00795933,1762.1
0.009472590000000001,1670.16
0.011109500000000001,1583.4299999999998
0.0130509,1492.61
0.015561100000000001,1388.28
0.0188466,1264.88
0.019381600000000002,1246.15
0.019394,1247.8400000000001
0.0193967,1252.15
0.0193986,1260.92
0.0194,1275.4399999999998
0.0194011,1293.1399999999999
0.019402100000000002,1315.8600000000001
0.019403,1342.41
0.0194042,1386.58
0.0194069,1498.36
0.019408,1533.18
0.0194088,1553.07
0.019409700000000002,1562.78
0.01941,1563.49
0.0194108,1557.97
0.0194117,1542.6
0.0194126,1514.17
0.019413700000000002,1472.36
0.0194156,1392.77
0.0194168,1348.2
0.0194177,1320.47
0.0194187,1297.4
0.0194197,1279.5
0.0194211,1263.21
0.0194229,1252.6200000000001
0.0194256,1247.16
0.019441299999999998,1243.98
0.022470900000000002,1137.27
0.0226583,1133.74
0.0227491,1136.07
0.0228021,1142.5700000000002
0.0228362,1152.77
0.0228617,1168.11
0.022875899999999998,1182.52
0.022887300000000003,1199.52
0.0228977,1222.18
0.0229048,1243.6499999999999
0.0229119,1272.5800000000002
0.0229164,1296.3899999999999
0.0229209,1326.14
0.0229254,1363.92
0.022928700000000003,1399.37
0.0229322,1444.74
0.0229346,1482.02
0.0229369,1526.04
0.0229393,1578.55
0.0229417,1641.89
0.022943500000000002,1698.3999999999999
0.0229452,1764.61
0.022947000000000002,1842.95
0.022948200000000002,1903.46
0.022949700000000003,1992.09
0.022951100000000002,2086.71
0.0229524,2198.0400000000004
0.0229533,2283.68
0.0229542,2380.39
0.022955100000000003,2490.32
0.0229561,2616.2200000000003
0.0229567,2721.81
0.0229574,2839.95
0.0229581,2972.9700000000003
0.022958799999999998,3123.79
0.022959399999999998,3296.15
0.022959900000000002,3442.37
0.022960400000000002,3605.79
0.0229609,3789.45
0.0229615,3996.9
0.022961900000000004,4216.55
0.0229624,4465.110000000001
0.0229629,4747.68
0.022963200000000003,4985.45
0.0229636,5248.5
0.022963900000000002,5540.099999999999
0.0229643,5863.65
0.0229646,6223.4400000000005
0.022965,6623.5
0.0229653,7053.219999999999
0.022965700000000002,7495.4
0.022966000000000004,7982.490000000001
0.0229663,8518.61
0.0229666,9108.55
0.0229669,9756.75
0.022967300000000003,10469.1
0.0229676,11249.800000000001
0.022967900000000003,12104.699999999999
0.022968199999999998,13038.6
0.0229685,14057.3
0.022968799999999998,14953.4
0.0229691,16093.0
0.0229694,17323.4
0.0229697,18648.4
0.02297,20071.3
0.0229703,21594.8
0.0229706,23220.6
0.022971,24949.8
0.0229713,27323.300000000003
0.0229717,29646.3
0.022972199999999998,32955.5
0.022972700000000002,36491.5
0.0229732,40773.700000000004
0.022974,46982.4
0.022975500000000003,59474.1
0.022976299999999998,66174.2
0.022976800000000002,70083.2
0.022977300000000003,73124.4
0.0229777,75815.7
0.0229782,78103.5
0.022978600000000002,79939.2
0.0229791,81250.2
0.022979500000000003,82073.3
0.02298,82395.9
0.0229805,82092.4
0.022980900000000002,81417.90000000001
0.0229813,80371.6
0.022981699999999997,78550.3
0.0229822,76360.8
0.0229826,73757.2
0.0229831,70793.0
0.022983600000000003,67243.0
0.0229844,60962.4
0.022986399999999997,44427.5
0.0229869,39855.9
0.0229875,35524.200000000004
0.022988,31916.5
0.022988400000000003,29376.2
0.0229888,26985.7
0.0229891,24750.3
0.0229895,22950.0
0.022989799999999998,21265.2
0.0229901,19693.7
0.0229904,18233.600000000002
0.022990800000000002,16880.4
0.022991100000000004,15631.1
0.0229914,14480.4
0.0229917,13423.8
0.0229921,12371.099999999999
0.022992400000000003,11417.0
0.0229928,10553.699999999999
0.0229932,9774.4
0.0229935,9071.67
0.022993899999999998,8438.99
0.0229942,7869.74
0.0229946,7358.13
0.022994900000000002,6897.96
0.0229953,6484.38
0.0229956,6112.25
0.022996,5777.21
0.0229963,5475.13
0.0229967,5202.49
0.022997100000000003,4955.91
0.022997399999999998,4732.56
0.022997899999999998,4466.160000000001
0.022998400000000002,4230.95
0.0229988,4022.28
0.022999299999999997,3836.3399999999997
0.022999900000000004,3640.01
0.0230004,3466.79
0.023001,3312.9300000000003
0.0230016,3175.46
0.0230023,3013.51
0.023003100000000002,2871.7999999999997
0.0230038,2746.84
0.023004600000000004,2635.84
0.023005300000000003,2536.67
0.0230063,2422.61
0.0230073,2322.58
0.0230082,2234.23
0.0230092,2155.73
0.023010700000000002,2053.3
0.023012100000000004,1965.91
0.023013699999999998,1885.74
0.0230155,1808.4199999999998
0.0230173,1742.58
0.023018999999999998,1686.0
0.0230214,1622.11
0.0230239,1566.27
0.0230265,1517.4099999999999
0.023029099999999997,1476.33
0.023033,1425.91
0.0230365,1388.9499999999998
0.0230401,1358.3799999999999
0.0230448,1325.19
0.023049499999999997,1298.52
0.0230566,1267.35
0.023061400000000003,1250.89
0.0230708,1225.22
0.0230808,1205.51
0.0230973,1182.75
0.023114400000000004,1167.18
0.023131400000000003,1156.27
0.0231655,1142.0900000000001
0.0232203,1129.38
0.023315000000000002,1117.9699999999998
0.0235373,1104.16
0.024453100000000002,1068.22
0.0275346,956.475
0.027571500000000002,958.5649999999999
0.027586100000000002,963.1220000000001
0.027594900000000002,970.116
0.027600600000000003,979.517
0.027604000000000004,989.277
0.027606199999999997,999.196
0.0276084,1015.14
0.0276095,1027.59
0.0276105,1045.56
0.027611300000000002,1062.27
0.027612,1084.52
0.0276126,1106.1000000000001
0.0276131,1133.12
0.027613699999999998,1166.98
0.027614200000000002,1209.3700000000001
0.0276146,1243.3700000000001
0.027614899999999998,1282.72
0.027615300000000002,1328.2
0.0276157,1380.58
0.027616,1440.8000000000002
0.0276164,1509.75
0.0276168,1588.47
0.0276171,1677.9599999999998
0.027617500000000003,1779.37
0.0276179,1893.74
0.027618200000000002,2022.2000000000003
0.0276186,2165.7799999999997
0.027618999999999998,2325.59
0.0276193,2502.48
0.027619699999999997,2697.38
0.0276201,2910.8999999999996
0.027620300000000004,3095.62
0.0276208,3396.09
0.0276212,3724.67
0.0276217,4081.2299999999996
0.0276221,4464.44
0.0276226,4943.030000000001
0.0276233,5601.5199999999995
0.0276242,6534.41
0.0276256,8122.33
0.0276262,8724.34
0.0276267,9223.55
0.027627199999999998,9622.92
0.0276277,10024.800000000001
0.027628200000000002,10362.800000000001
0.0276286,10577.5
0.0276292,10766.6
0.0276296,10858.8
0.02763,10890.5
0.0276305,10849.7
0.0276309,10751.0
0.0276315,10553.6
0.027631899999999997,10305.0
0.0276324,9979.42
0.0276328,9643.68
0.0276333,9268.57
0.0276339,8710.5
0.027634699999999998,7797.66
0.027636400000000002,5994.82
0.027637000000000002,5383.12
0.027637600000000002,4794.92
0.027638,4423.339999999999
0.0276384,4073.3199999999997
0.027638799999999998,3746.2599999999998
0.027639200000000003,3442.83
0.0276395,3221.79
0.027639900000000002,2985.87
0.0276403,2769.1400000000003
0.0276406,2571.11
0.027641,2391.08
0.0276414,2228.23
0.0276417,2081.66
0.0276421,1950.34
0.0276425,1833.21
0.0276428,1729.1799999999998
0.027643200000000003,1637.18
0.0276436,1556.1100000000001
0.027643900000000002,1484.95
0.0276443,1422.67
0.0276447,1368.34
0.027645,1321.08
0.0276455,1265.22
0.027646000000000004,1221.03
0.0276465,1184.74
0.027647,1154.9499999999998
0.0276475,1130.51
0.027648199999999998,1104.53
0.027648799999999998,1084.3799999999999
0.027649800000000002,1062.01
0.0276505,1050.81
0.0276519,1032.7
0.0276534,1020.3100000000001
0.027656299999999998,1004.0500000000001
0.027659500000000004,992.6840000000001
0.0276657,979.6379999999999
0.0276745,969.739
0.027686199999999998,962.872
0.027712,956.005
0.0277824,949.2810000000001
0.0283068,927.351
0.0304806,845.115
0.0308554,834.547
0.031005400000000002,833.014
0.031145900000000004,835.8169999999999
0.0312302,841.987
0.0313005,852.698
0.0313474,865.201
0.0313825,879.473
0.0314059,892.596
0.0314282,908.946
0.0314493,929.28
0.0314651,948.916
0.0314809,973.66
0.0314967,1005.36
0.0315072,1031.67
0.0315178,1063.44
0.031528299999999995,1102.2099999999998
0.0315362,1137.17
0.0315441,1178.56
0.031550600000000005,1218.55
0.0315571,1265.15
0.0315636,1319.9
0.031570100000000004,1384.8
0.0315745,1434.95
0.031578800000000004,1491.69
0.0315835,1561.92
0.0315882,1643.34
0.0315917,1713.2
0.031595200000000004,1792.02
0.0315987,1881.38
0.0316022,1983.22
0.0316057,2099.97
0.0316081,2187.57
0.0316104,2284.23
0.0316128,2391.24
0.0316151,2510.1200000000003
0.0316173,2633.1000000000004
0.0316193,2759.1
0.0316213,2898.4
0.0316234,3052.93
0.0316254,3224.98
0.0316274,3417.29
0.0316294,3633.1600000000003
0.0316314,3876.6
0.031633100000000004,4104.4400000000005
0.0316345,4305.81
0.0316358,4525.99
0.031637200000000004,4767.35
0.0316385,5032.69
0.0316399,5325.2699999999995
0.0316412,5648.889999999999
0.0316426,6008.05
0.0316437,6343.72
0.0316451,6801.389999999999
0.0316465,7317.1900000000005
0.0316475,7698.14
0.0316484,8112.75
0.0316494,8564.91
0.0316503,9059.060000000001
0.0316512,9572.039999999999
0.031652,10101.7
0.031652900000000005,10678.6
0.0316537,11307.9
0.0316546,11995.6
0.0316554,12748.2
0.0316562,13572.800000000001
0.0316571,14477.199999999999
0.0316578,15355.2
0.0316588,16624.399999999998
0.0316595,17551.1
0.031660100000000004,18547.5
0.0316608,19618.7
0.0316614,20769.000000000004
0.0316621,22003.2
0.031663000000000004,23919.800000000003
0.0316639,25806.6
0.0316647,27852.600000000002
0.0316656,30059.7
0.031666400000000004,32426.6
0.0316675,35819.200000000004
0.0316684,38524.3
0.0316701,44252.399999999994
0.0316729,54224.4
0.0316741,58041.299999999996
0.0316753,61471.4
0.0316761,63694.100000000006
0.0316769,65277.9
0.0316778,66795.40000000001
0.031678700000000004,67838.8
0.0316796,68375.2
0.03168,68447.3
0.0316809,68196.3
0.0316818,67427.09999999999
0.0316827,66164.9
0.0316836,64449.8
0.0316844,62364.100000000006
0.0316853,59948.6
0.0316865,56327.8
0.0316882,50365.399999999994
0.031690499999999996,42515.5
0.0316919,37827.2
0.031693,34313.4
0.0316939,31844.899999999998
0.0316947,29531.3
0.031695600000000004,27377.5
0.0316964,25383.7
0.0316972,23546.999999999996
0.0316982,21593.6
0.0316989,20399.4
0.0316995,19286.5
0.0317005,17759.7
0.0317015,16389.8
0.0317025,15161.4
0.0317033,14209.5
0.0317042,13341.8
0.031705000000000004,12549.9
0.031705899999999995,11826.5
0.0317067,11164.7
0.0317075,10558.300000000001
0.031708400000000005,10001.7
0.0317092,9490.14
0.0317102,8968.91
0.0317111,8492.34
0.031712,8055.6
0.031713,7654.57
