E(MeV),xs(mb)
1.0e-11,40367.7
1.03223e-11,39736.799999999996
1.06549e-11,39116.1
1.0998399999999998e-11,38505.0
1.13527e-11,37903.9
1.1718599999999999e-11,37312.0
1.2096199999999998e-11,36729.799999999996
1.24861e-11,36156.6
1.2888399999999999e-11,35592.700000000004
1.3303799999999998e-11,35037.5
1.37325e-11,34491.4
1.41751e-11,33953.700000000004
1.4631799999999997e-11,33424.7
1.51034e-11,32904.0
1.5590099999999998e-11,32391.7
1.6092599999999998e-11,31887.4
1.66111e-11,31391.300000000003
1.71465e-11,30902.9
1.7699e-11,30422.5
1.8269399999999998e-11,29949.499999999996
1.88581e-11,29484.2
1.94659e-11,29026.2
2.00931e-11,28575.6
2.0740699999999998e-11,28132.100000000002
2.1408999999999998e-11,27695.8
2.2099099999999997e-11,27266.300000000003
2.28111e-11,26843.8
2.3546399999999998e-11,26427.9
2.4305099999999997e-11,26018.8
2.50884e-11,25616.2
2.5896799999999997e-11,25219.999999999996
2.67315e-11,24830.100000000002
2.75928e-11,24446.6
2.8482199999999998e-11,24069.1
2.93999e-11,23697.7
3.0347499999999995e-11,23332.199999999997
3.13253e-11,22972.7
3.2335e-11,22618.800000000003
3.33769e-11,22270.8
3.44526e-11,21928.2
3.55627e-11,21591.2
3.67089e-11,21259.600000000002
3.7891799999999997e-11,20933.4
3.9113e-11,20612.4
4.0373400000000003e-11,20296.6
4.1674599999999996e-11,19985.9
4.3017399999999996e-11,19680.2
4.440389999999999e-11,19379.4
4.58347e-11,19083.600000000002
4.7311899999999994e-11,18792.5
4.883639999999999e-11,18506.2
5.0410399999999995e-11,18224.5
5.20348e-11,17947.4
5.37119e-11,17674.7
5.54426e-11,17406.600000000002
5.7229499999999995e-11,17142.7
5.907359999999999e-11,16883.2
6.09775e-11,16627.9
6.29424e-11,16376.900000000001
6.497099999999999e-11,16129.9
6.70645e-11,15887.0
6.9226e-11,15648.0
7.145659999999999e-11,15412.999999999998
7.37596e-11,15181.800000000001
7.61364e-11,14954.5
7.85902e-11,14730.9
8.11227e-11,14511.0
8.37372e-11,14294.7
8.643549999999999e-11,14081.999999999998
8.922119999999998e-11,13872.800000000001
9.209619999999999e-11,13667.199999999999
9.506439999999999e-11,13464.9
9.81277e-11,13266.0
1.01291e-10,13070.4
1.04554e-10,12878.099999999999
1.07924e-10,12689.0
1.11402e-10,12503.1
1.1499200000000001e-10,12320.3
1.1869700000000001e-10,12140.599999999999
1.22523e-10,11963.900000000001
1.26471e-10,11790.300000000001
1.30547e-10,11619.5
1.34754e-10,11451.7
1.3909700000000002e-10,11286.6
1.43579e-10,11124.5
1.48207e-10,10965.1
1.52982e-10,10808.4
1.57913e-10,10654.4
1.63347e-10,10492.999999999998
1.6896800000000002e-10,10334.6
1.74782e-10,10179.199999999999
1.80796e-10,10026.6
1.87018e-10,9876.83
1.9345300000000001e-10,9729.84
2.0011000000000002e-10,9585.59
2.06996e-10,9444.039999999999
2.14119e-10,9305.130000000001
2.21487e-10,9168.83
2.2910900000000002e-10,9035.1
2.36993e-10,8903.890000000001
2.45148e-10,8775.17
2.53584e-10,8648.9
2.6231e-10,8525.029999999999
2.7133600000000003e-10,8403.53
2.80673e-10,8284.359999999999
2.90331e-10,8167.48
3.0032199999999997e-10,8052.860000000001
3.10657e-10,7940.46
3.21347e-10,7830.24
3.3240500000000005e-10,7722.17
3.43843e-10,7616.21
3.55675e-10,7512.34
3.67914e-10,7410.51
3.8057400000000004e-10,7310.6900000000005
3.9367000000000005e-10,7212.85
4.07217e-10,7116.96
4.2123e-10,7022.98
4.3572499999999996e-10,6930.889999999999
4.51671e-10,6835.07
4.68204e-10,6741.29
4.85339e-10,6649.54
5.03105e-10,6559.75
5.215169999999999e-10,6471.93
5.40607e-10,6385.99
5.60392e-10,6301.95
5.809040000000001e-10,6219.7300000000005
6.02164e-10,6139.32
6.24206e-10,6060.679999999999
6.470500000000001e-10,5983.780000000001
6.707340000000001e-10,5908.57
6.95282e-10,5835.05
7.207320000000001e-10,5763.150000000001
7.47109e-10,5692.87
7.760930000000001e-10,5620.17
8.062010000000001e-10,5549.2
8.37478e-10,5479.92
8.699680000000001e-10,5412.29
9.037190000000002e-10,5346.28
9.38778e-10,5281.86
9.75198e-10,5218.99
1.0130300000000002e-9,5157.63
1.05233e-9,5097.75
1.09316e-9,5039.32
1.13797e-9,4979.17
1.18462e-9,4920.57
1.23318e-9,4863.46
1.28373e-9,4807.8099999999995
1.3363600000000001e-9,4753.59
1.3911400000000002e-9,4700.76
1.44817e-9,4649.2699999999995
1.51073e-9,4596.5
1.57599e-9,4545.16
1.64407e-9,4495.19
1.7150900000000001e-9,4446.5599999999995
1.78918e-9,4399.24
1.86647e-9,4353.19
1.9512100000000003e-9,4306.17
2.0398100000000002e-9,4260.45
2.1324200000000004e-9,4216.03
2.22925e-9,4172.83
2.33047e-9,4130.84
2.44144e-9,4088.1100000000006
2.5577000000000004e-9,4046.61
2.6794900000000002e-9,4006.31
2.80709e-9,3967.17
2.9469900000000004e-9,3927.46
3.0938500000000004e-9,3888.9300000000003
3.2480400000000003e-9,3851.56
3.4099e-9,3815.29
3.5874100000000005e-9,3778.6
3.77417e-9,3743.03
3.97064e-9,3708.56
4.17735e-9,3675.14
4.404130000000001e-9,3641.41
4.643200000000001e-9,3608.75
4.89527e-9,3577.1099999999997
5.17193e-9,3545.2599999999998
5.46423e-9,3514.4500000000003
5.77305e-9,3484.6400000000003
6.112230000000001e-9,3454.7
6.47135e-9,3425.75
6.85155e-9,3397.77
7.26946e-9,3369.73
7.712860000000001e-9,3342.65
8.200640000000001e-9,3315.5800000000004
8.71923e-9,3289.46
9.290260000000001e-9,3263.3999999999996
9.89869e-9,3238.28
1.0547e-8,3214.06
1.12615e-8,3189.9500000000003
1.2024399999999999e-8,3166.73
1.2866200000000002e-8,3143.65
1.37961e-8,3120.77
1.47931e-8,3098.77
1.58958e-8,3077.0
1.70807e-8,3056.08
1.83928e-8,3035.4199999999996
1.98476e-8,3015.04
2.14174e-8,2995.5099999999998
2.31603e-8,2976.27
2.50981e-8,2957.37
2.52522e-8,2955.96
2.5299999999999998e-8,2955.53
2.7416800000000002e-8,2937.52
2.9773700000000003e-8,2919.85
3.24015e-8,2902.54
3.53359e-8,2885.6099999999997
3.86176e-8,2869.0699999999997
4.22936e-8,2852.9399999999996
4.6417400000000006e-8,2837.23
5.1051000000000005e-8,2821.9599999999996
5.62662e-8,2807.14
6.21455e-8,2792.78
6.87843e-8,2778.88
7.6455e-8,2765.17
8.516069999999999e-8,2751.96
9.50588e-8,2739.2400000000002
1.0655699999999998e-7,2726.79
1.19699e-7,2714.8599999999997
1.3503099999999999e-7,2703.2400000000002
1.52974e-7,2691.96
1.7403399999999998e-7,2681.0499999999997
1.98833e-7,2670.51
2.2812800000000002e-7,2660.38
2.6284999999999995e-7,2650.67
3.04783e-7,2641.2599999999998
3.54903e-7,2632.29
4.15895e-7,2623.67
4.9047e-7,2615.41
5.833319999999999e-7,2607.45
6.98191e-7,2599.9
8.4276e-7,2592.7
1.02797e-6,2585.81
1.4591099999999998e-6,2575.21
3.1750899999999996e-6,2557.28
8.28973e-6,2542.3399999999997
2.9662700000000003e-5,2528.1
0.00018983200000000002,2495.25
0.000975901,2375.82
0.00200724,2239.6099999999997
0.00318938,2102.17
0.004606600000000001,1955.44
0.00642343,1785.08
0.0102023,1450.75
0.0102112,1450.6200000000001
0.010237099999999999,1454.61
0.010244500000000002,1460.47
0.0102498,1470.44
0.0102534,1485.46
0.0102554,1501.26
0.0102567,1519.48
0.010257700000000002,1542.21
0.0102584,1565.52
0.0102589,1589.8600000000001
0.0102594,1622.6499999999999
0.0102598,1667.01
0.010260199999999999,1704.97
0.010260499999999999,1751.28
0.0102608,1807.58
0.0102612,1875.66
0.0102615,1957.48
0.010261800000000001,2041.49
0.010262,2123.43
0.0102623,2215.91
0.0102625,2319.76
0.0102628,2435.7700000000004
0.010263,2564.64
0.0102633,2706.92
0.010263500000000002,2863.06
0.0102637,3040.56
0.010264,3241.24
0.0102643,3458.18
0.010264500000000001,3690.72
0.010264899999999999,4066.35
0.0102653,4469.13
0.0102661,5279.200000000001
0.0102667,5918.53
0.0102671,6346.25
0.0102675,6677.469999999999
0.0102678,6936.110000000001
0.0102681,7156.46
0.0102684,7332.55
0.0102687,7459.6900000000005
0.010268999999999999,7534.3
0.010269299999999999,7554.83
0.010269600000000002,7533.070000000001
0.0102699,7471.9
0.0102701,7370.21
0.0102705,7193.74
0.0102708,6996.889999999999
0.0102711,6747.58
0.010271500000000001,6419.7300000000005
0.010272,5893.58
0.0102733,4466.26
0.010273699999999998,4063.68
0.0102741,3688.18
0.0102744,3455.77
0.010274700000000001,3194.95
0.010275000000000001,2984.9199999999996
0.0102752,2793.91
0.0102755,2621.5099999999998
0.0102758,2467.39
0.010276,2374.37
0.0102763,2260.32
0.0102765,2159.03
0.010276799999999999,2069.5
0.010277000000000001,1990.84
0.010277300000000001,1922.0
0.0102775,1862.07
0.0102778,1810.09
0.010278,1765.19
0.010278400000000002,1716.0
0.0102787,1675.64
0.0102792,1628.42
0.010279700000000001,1593.51
0.010280000000000001,1575.41
0.0102807,1548.2
0.010281700000000001,1522.0
0.0102827,1505.63
0.0102846,1486.78
0.0102871,1472.99
0.010291,1461.32
0.010299899999999999,1449.73
0.010321100000000001,1441.2
0.0104541,1425.77
0.0118587,1290.7900000000002
0.012956,1176.74
0.013910100000000002,1072.8999999999999
0.014069499999999999,1060.36
0.0141296,1058.7
0.0141844,1061.0900000000001
0.014225600000000001,1067.98
0.014253,1077.31
0.0142736,1088.62
0.0142942,1106.1499999999999
0.0143079,1123.24
0.014321600000000002,1147.05
0.0143319,1171.4
0.014342200000000001,1203.95
0.014349,1232.01
0.0143561,1268.26
0.0143608,1297.9099999999999
0.014365600000000001,1333.19
0.014370099999999998,1373.4599999999998
0.0143743,1419.41
0.0143786,1474.78
0.0143818,1524.1
0.0143851,1581.76
0.014387700000000002,1636.98
0.014390400000000001,1700.61
0.014393000000000001,1774.47
0.0143957,1860.86
0.014397400000000001,1926.8799999999999
0.014399900000000002,2031.7699999999998
0.0144019,2133.6
0.014404,2251.4500000000003
0.014405300000000001,2340.6
0.0144067,2439.7000000000003
0.014408,2550.3
0.014409400000000001,2674.28
0.0144109,2833.35
0.0144122,2984.66
0.0144135,3155.7200000000003
0.014414800000000002,3350.2000000000003
0.014416100000000001,3572.5600000000004
0.0144169,3739.03
0.014417800000000001,3922.46
0.0144187,4125.200000000001
0.014419500000000002,4350.16
0.0144204,4600.7
0.0144212,4881.0
0.0144221,5196.0
0.0144227,5458.71
0.0144234,5747.39
0.0144241,6107.9
0.014424699999999999,6433.74
0.014425300000000002,6792.679999999999
0.0144259,7189.47
0.0144265,7629.81
0.0144271,8120.4400000000005
0.0144276,8669.43
0.0144281,9125.28
0.0144285,9624.029999999999
0.014429,10190.5
0.014429399999999998,10815.699999999999
0.0144299,11508.0
0.0144303,12276.400000000001
0.014430799999999999,13132.1
0.014431300000000001,14086.8
0.014431600000000001,14876.400000000001
0.0144319,15735.699999999999
0.0144323,16837.0
0.014432700000000001,17874.600000000002
0.014433000000000001,19006.5
0.0144334,20241.3
0.0144337,21588.1
0.014434100000000002,23056.3
0.0144344,24655.300000000003
0.0144347,26394.600000000002
0.014435100000000001,28087.9
0.014435500000000002,30545.300000000003
0.0144359,33244.3
0.0144363,36195.5
0.0144367,39408.0
0.014437100000000001,42884.5
0.0144376,47275.799999999996
0.0144381,52012.5
0.0144386,57069.4
0.014439200000000001,64761.100000000006
0.0144405,79402.79999999999
0.014441299999999999,89066.50000000001
0.0144419,95842.8
0.0144425,101992.0
0.014443,105643.0
0.0144434,108741.0
0.0144438,111215.0
0.014444300000000002,113147.0
0.0144447,114073.0
0.0144451,114389.00000000001
0.0144455,113988.0
0.014446,112777.0
0.0144464,110695.00000000001
0.0144469,107833.0
0.014447399999999999,104268.99999999999
0.0144478,100101.0
0.0144484,93783.8
0.014449000000000002,86851.40000000001
0.014450900000000001,64951.4
0.0144516,57267.0
0.0144521,52213.5
0.0144525,47477.600000000006
0.014453,43087.600000000006
0.014453400000000002,39607.700000000004
0.014453800000000001,36393.5
0.0144543,33439.5
0.014454700000000001,30738.1
0.0144551,28276.9
0.0144554,26580.7
0.0144557,24837.600000000002
0.014456100000000001,23235.0
0.014456400000000001,21763.2
0.0144568,20412.7
0.0144571,19174.2
0.014457500000000002,18038.7
0.014457800000000002,16997.6
0.014458200000000001,15892.0
0.0144585,15028.8
0.014458899999999998,14236.1
0.0144593,13276.699999999999
0.0144598,12416.8
0.014460200000000001,11644.000000000002
0.0144607,10947.800000000001
0.0144612,10318.7
0.0144616,9748.78
0.0144621,9246.320000000002
0.014462500000000001,8787.269999999999
0.0144631,8234.17
0.0144637,7739.7
0.014464300000000001,7295.73
0.014464900000000001,6895.47
0.0144654,6533.29
0.014466000000000001,6204.4
0.0144668,5840.320000000001
0.0144674,5548.57
0.014468000000000002,5283.089999999999
0.0144689,4964.5
0.0144698,4680.900000000001
0.0144706,4427.2
0.0144715,4199.32
0.0144723,3993.7999999999997
0.0144732,3807.7999999999997
0.014474,3638.82
0.0144753,3412.98
0.0144766,3215.32
0.0144779,3041.25
0.014479200000000001,2887.1699999999996
0.014480699999999999,2725.01
0.0144821,2598.47
0.0144835,2485.47
0.0144848,2384.12
0.0144869,2250.57
0.0144889,2135.51
0.014490900000000001,2035.67
0.0144927,1959.48
0.0144954,1860.07
0.014498,1775.34
0.0145007,1702.52
0.014503299999999998,1639.45
0.0145062,1580.81
0.014509399999999999,1523.55
0.0145126,1474.25
0.0145158,1431.48
0.014520100000000001,1382.72
0.0145246,1339.69
0.0145293,1301.7
0.014536400000000001,1255.22
0.014541100000000001,1229.68
0.014548000000000002,1198.39
0.014558199999999999,1161.32
0.0145685,1132.77
0.014582200000000002,1103.72
0.014596,1081.71
0.0146165,1057.21
0.0146371,1039.29
0.014664600000000002,1021.5300000000001
0.0147057,1002.4900000000001
0.014773099999999999,980.786
0.0148047,973.242
0.0148085,974.817
0.0148103,980.1880000000001
0.0148115,990.188
0.0148121,999.5150000000001
0.014812700000000002,1013.1099999999999
0.014813400000000001,1032.43
0.014814,1058.36
0.014814400000000002,1082.6899999999998
0.0148149,1112.27
0.0148153,1147.69
0.014815700000000001,1189.3899999999999
0.0148162,1238.58
0.0148167,1296.7
0.014817100000000001,1361.9399999999998
0.0148176,1433.6100000000001
0.0148182,1537.18
0.014819500000000001,1759.82
0.014820199999999999,1876.4099999999999
0.014820700000000001,1948.18
0.014821200000000001,2007.9600000000003
0.0148217,2052.58
0.014822100000000001,2077.23
0.0148226,2089.68
0.0148227,2090.57
0.014823200000000002,2082.4500000000003
0.0148236,2062.7
0.014823900000000001,2041.69
0.014824299999999999,1998.69
0.0148248,1936.96
0.0148253,1863.99
0.014825999999999999,1755.83
0.014827300000000002,1529.3300000000002
0.014827900000000001,1428.1200000000001
0.0148285,1336.5800000000002
0.0148289,1283.34
0.014829300000000002,1235.46
0.0148297,1192.99
0.014830300000000001,1142.9199999999998
0.0148308,1108.5100000000002
0.014831200000000001,1080.09
0.014831700000000001,1057.0
0.014832300000000001,1033.23
0.0148329,1015.94
0.0148336,1003.6
0.0148345,991.618
0.0148358,983.014
0.0148376,977.2640000000001
0.014842900000000001,971.665
0.0148631,963.8820000000001
0.014961100000000001,944.314
0.0152844,893.4609999999999
0.0160087,783.038
0.0165124,700.921
0.0169001,633.514
0.017238899999999998,571.751
0.0175778,506.628
0.0179166,438.797
0.0182555,368.0
0.0186559,281.543
0.0190891,187.025
0.0191324,177.976
0.0191577,173.444
0.0191702,172.206
0.0191719,172.18
0.0191769,172.493
0.0191811,173.47
0.0191849,175.494
0.0191872,177.661
0.0191888,179.80100000000002
0.0191903,182.895
0.0191915,186.323
0.0191922,189.533
0.019193,193.962
0.0191936,198.498
0.019194,202.338
0.0191943,207.033
0.019194700000000002,212.80700000000002
0.0191951,219.93900000000002
0.0191954,226.38400000000001
0.0191957,233.95100000000002
0.019196,242.849
0.0191963,253.29600000000002
0.0191966,265.559
0.0191968,279.93100000000004
0.019197,290.85
0.0191972,302.955
0.0191974,316.378
0.0191976,331.227
0.0191978,347.647
0.019198,365.76399999999995
0.019198200000000002,385.754
0.0191984,407.747
0.0191986,431.927
0.019198800000000002,458.44500000000005
0.019199,487.514
0.0191991,519.288
0.0191993,553.981
0.0191995,591.763
0.0191997,626.508
0.019199900000000002,663.749
0.0192001,724.624
0.0192004,791.85
0.0192006,865.874
0.0192008,947.0409999999999
0.0192011,1035.8700000000001
0.0192013,1132.59
0.019201600000000003,1237.6000000000001
0.0192018,1351.1100000000001
0.0192021,1473.43
0.019202300000000002,1620.73
0.0192026,1788.01
0.019202900000000002,1967.7199999999998
0.0192032,2159.8700000000003
0.019203500000000002,2363.89
0.0192039,2649.79
0.0192043,2949.58
0.019204699999999998,3344.86
0.0192055,4010.4100000000003
0.019206300000000003,4770.349999999999
0.0192069,5273.13
0.0192074,5668.5
0.0192078,5970.08
0.0192082,6195.31
0.0192086,6389.41
0.019209,6556.72
0.019209300000000002,6646.55
0.0192097,6702.72
0.01921,6724.48
0.0192103,6705.73
0.0192107,6635.19
0.019211100000000002,6540.429999999999
0.0192115,6364.9800000000005
0.0192119,6139.65
0.0192123,5874.67
0.019212800000000002,5549.610000000001
0.0192133,5128.2
0.0192139,4570.04
0.019215100000000002,3485.05
0.0192157,3015.28
0.0192161,2661.24
0.0192165,2411.27
0.019216800000000003,2176.12
0.0192171,1956.65
0.0192174,1819.37
0.019217599999999998,1689.3899999999999
0.0192178,1566.73
0.019218,1451.36
0.0192182,1343.2
0.0192185,1227.51
0.019218700000000002,1136.52
0.0192189,1051.9099999999999
0.0192191,973.3409999999999
0.0192194,900.6830000000001
0.0192196,833.609
0.019219800000000002,771.8779999999999
0.01922,715.181
0.0192202,663.2710000000001
0.0192204,615.835
0.0192207,572.626
0.019220900000000003,532.328
0.0192211,495.87
0.0192213,462.93800000000005
0.0192215,433.27299999999997
0.0192218,406.57800000000003
0.019222,382.627
0.019222200000000002,361.16
0.0192224,341.966
0.019222600000000003,324.80899999999997
0.0192229,309.512
0.0192231,295.88100000000003
0.019223300000000002,283.754
0.0192235,272.96299999999997
0.0192238,263.377
0.0192241,250.96099999999998
0.0192244,240.563
0.0192247,231.847
0.0192251,224.531
0.0192254,218.36700000000002
0.0192257,213.15900000000002
0.0192262,207.408
0.0192266,202.731
0.0192273,197.201
0.019228099999999998,192.073
0.0192289,188.442
0.01923,184.21
0.0192315,179.946
0.0192337,175.231
0.0192364,171.183
0.019239100000000002,168.11499999999998
0.0192431,164.562
0.019247700000000003,161.547
0.0192536,158.585
0.019264200000000002,154.481
0.019279,149.994
0.0192996,144.758
0.0193491,133.603
0.0194319,116.33800000000001
0.019507,101.38400000000001
0.0195821,87.0046
0.0196384,76.64
0.0197041,65.0257
0.0197511,57.1078
0.0197886,51.013999999999996
0.019816800000000002,46.5908
0.019854300000000002,40.9242
0.0198918,35.5111
0.01992,31.6534
0.0199482,27.9767
0.0199763,24.4803
0.0199998,21.721
0.0200186,19.6153
0.0200373,17.6053
0.0200561,15.6947
0.020074900000000003,13.880999999999998
0.020089000000000003,12.595
0.020103,11.371599999999999
0.0201171,10.2121
0.0201312,9.11849
0.0201453,8.09248
0.0201547,7.44707
0.020164,6.83323
0.0201734,6.25155
0.020182799999999997,5.70268
0.020191,5.24979
0.0201992,4.82238
0.0202075,4.42051
0.0202157,4.04683
0.020223900000000003,3.70065
0.020232100000000003,3.38228
0.020238299999999997,3.16203
0.0202444,2.9579
0.0202506,2.77008
0.0202567,2.59877
0.0202629,2.44418
0.0202691,2.30653
0.0202752,2.18602
0.0202814,2.08287
0.0202867,2.00834
0.020291899999999998,1.94669
0.0202972,1.8983
0.0203025,1.86341
0.0203078,1.84203
0.0203116,1.83505
0.020313599999999998,1.83427
0.0203179,1.8393
0.020322100000000003,1.85337
0.020326399999999998,1.87652
0.0203307,1.90886
0.0203364,1.96696
0.0203421,2.0421
0.0203478,2.13463
0.020353500000000004,2.24445
0.0203593,2.3716
0.0203653,2.52437
0.0203714,2.70148
0.0203776,2.89968
0.0203837,3.11926
0.020389900000000002,3.36048
0.0203961,3.62362
0.020402200000000002,3.90896
0.020408400000000004,4.21676
0.020414500000000002,4.54733
0.0204207,4.90094
0.020426899999999998,5.27787
0.0204351,5.81728
0.0204433,6.3994
0.0204515,7.02496
0.0204597,7.69513
0.0204679,8.41246
0.0204761,9.17349
0.0204844,9.98034
0.0204926,10.834399999999999
0.020502,11.869499999999999
0.020511300000000003,12.968399999999999
0.0205207,14.1327
0.0205301,15.3634
0.0205395,16.6619
0.0205489,18.0294
0.020562999999999998,20.2135
0.020577,22.5605
0.0205911,25.075699999999998
0.0206052,27.7637
0.0206193,30.6301
0.020633400000000003,33.6796
0.0206474,36.918099999999995
0.0206615,40.3508
0.0206756,43.983999999999995
0.020692,48.498900000000006
0.020709599999999998,53.6459
0.020727199999999998,59.1357
0.020746000000000004,65.3885
0.0207648,72.06649999999999
0.0207835,79.187
0.0208023,86.7679
0.020821100000000002,94.82820000000001
0.0208399,103.387
0.020858599999999998,112.466
0.0208774,122.08600000000001
0.0208962,132.269
0.0209149,143.03900000000002
0.020933700000000003,154.42100000000002
0.020952500000000002,166.439
0.0209713,179.122
0.02099,192.496
0.0210182,213.94600000000003
0.0210464,237.074
0.0210745,262.099
0.0211027,289.029
0.0211308,318.115
