E(MeV),xs(mb)
1.0e-11,992151.0
1.03223e-11,976549.9999999999
1.06549e-11,961201.0
1.0998399999999998e-11,946088.0
1.13527e-11,931218.0
1.1718599999999999e-11,916577.0
1.2096199999999998e-11,902172.0
1.24861e-11,887988.0
1.2888399999999999e-11,874034.0
1.3303799999999998e-11,860293.0000000001
1.37325e-11,846775.0
1.41751e-11,833464.0
1.4631799999999997e-11,820367.0000000001
1.51034e-11,807473.0000000001
1.5590099999999998e-11,794786.0
1.6092599999999998e-11,782294.0
1.66111e-11,770003.0
1.71465e-11,757902.0
1.7699e-11,745996.0
1.8269399999999998e-11,734273.0
1.88581e-11,722739.0
1.94659e-11,711383.0
2.00931e-11,700209.0
2.0740699999999998e-11,689208.0
2.1408999999999998e-11,678384.0
2.2099099999999997e-11,667727.0
2.28111e-11,657241.0
2.3546399999999998e-11,646917.0
2.4305099999999997e-11,636759.0
2.50884e-11,626759.0
2.5896799999999997e-11,616918.0
2.67315e-11,607231.0
2.75928e-11,597698.0
2.8482199999999998e-11,588313.0
2.93999e-11,579079.0
3.0347499999999995e-11,569988.0
3.13253e-11,561043.0
3.2335e-11,552236.0
3.33769e-11,543571.0
3.44526e-11,535040.0
3.55627e-11,526646.0
3.67089e-11,518382.0
3.7891799999999997e-11,510250.0
3.9113e-11,502245.0
4.0373400000000003e-11,494367.99999999994
4.1674599999999996e-11,486613.99999999994
4.3017399999999996e-11,478984.0
4.440389999999999e-11,471472.0
4.58347e-11,464081.0
4.7311899999999994e-11,456805.00000000006
4.883639999999999e-11,449645.0
5.0410399999999995e-11,442597.00000000006
5.20348e-11,435661.0
5.37119e-11,428834.0
5.54426e-11,422116.0
5.7229499999999995e-11,415502.00000000006
5.907359999999999e-11,408995.0
6.09775e-11,402589.00000000006
6.29424e-11,396286.0
6.497099999999999e-11,390080.0
6.70645e-11,383975.0
6.9226e-11,377964.0
7.145659999999999e-11,372050.0
7.37596e-11,366228.0
7.61364e-11,360500.0
7.85902e-11,354861.0
8.11227e-11,349312.0
8.37372e-11,343850.0
8.643549999999999e-11,338476.0
8.922119999999998e-11,333185.0
9.209619999999999e-11,327979.0
9.506439999999999e-11,322855.0
9.81277e-11,317813.0
1.01291e-10,312849.0
1.04554e-10,307966.0
1.07924e-10,303159.0
1.11402e-10,298429.0
1.1499200000000001e-10,293773.0
1.1869700000000001e-10,289192.0
1.22523e-10,284682.0
1.26471e-10,280246.0
1.30547e-10,275878.0
1.34754e-10,271581.0
1.3909700000000002e-10,267351.0
1.43579e-10,263190.0
1.48207e-10,259093.00000000003
1.52982e-10,255062.0
1.57913e-10,251094.99999999997
1.6300100000000001e-10,247190.99999999997
1.68254e-10,243349.0
1.73676e-10,239569.0
1.79274e-10,235848.0
1.8505000000000002e-10,232187.0
1.91014e-10,228582.99999999997
1.97169e-10,225037.99999999997
2.03524e-10,221548.0
2.1008200000000003e-10,218115.0
2.16853e-10,214736.0
2.2384e-10,211411.00000000003
2.31055e-10,208137.99999999997
2.385e-10,204918.99999999997
2.46187e-10,201750.0
2.5412e-10,198633.0
2.6231e-10,195564.0
2.70762e-10,192546.0
2.7948900000000003e-10,189574.0
2.88494e-10,186651.0
2.9779300000000004e-10,183774.0
3.07388e-10,180944.0
3.1729500000000004e-10,178159.0
3.27519e-10,175418.0
3.38075e-10,172721.0
3.4896900000000003e-10,170068.0
3.6021600000000004e-10,167456.0
3.7182300000000004e-10,164887.0
3.83807e-10,162359.0
3.96174e-10,159872.0
4.08943e-10,157424.0
4.2212e-10,155016.0
4.3572499999999996e-10,152646.0
4.4976500000000005e-10,150315.0
4.6426100000000007e-10,148020.0
4.79221e-10,145763.0
4.94666e-10,143542.0
5.10605e-10,141357.0
5.270620000000001e-10,139207.0
5.440450000000001e-10,137092.0
5.6158e-10,135010.0
5.796750000000001e-10,132962.0
5.98358e-10,130946.99999999999
6.176389999999999e-10,128965.0
6.37545e-10,127014.0
6.58089e-10,125095.0
6.79298e-10,123207.0
7.01188e-10,121350.0
7.237860000000001e-10,119522.0
7.47109e-10,117724.0
7.71188e-10,115955.00000000001
7.960380000000001e-10,114214.0
8.21693e-10,112501.0
8.48171e-10,110817.00000000001
8.75507e-10,109159.0
9.037190000000002e-10,107528.0
9.32845e-10,105924.0
9.62904e-10,104345.0
9.93937e-10,102792.0
1.0259700000000001e-9,101264.0
1.05903e-9,99761.0
1.09316e-9,98282.2
1.12839e-9,96827.0
1.16475e-9,95395.59999999999
1.2022900000000002e-9,93987.09999999999
1.2410300000000002e-9,92601.5
1.28103e-9,91238.2
1.3223100000000002e-9,89897.1
1.36492e-9,88577.5
1.4089000000000002e-9,87279.3
1.4543100000000001e-9,86001.99999999999
1.5011699999999999e-9,84745.5
1.5495600000000002e-9,83509.1
1.5994900000000002e-9,82292.79999999999
1.65453e-9,81016.99999999999
1.71146e-9,79763.2
1.77036e-9,78530.9
1.8312800000000001e-9,77319.9
1.89429e-9,76129.6
1.9594800000000004e-9,74959.8
2.02691e-9,73810.2
2.09665e-9,72680.3
2.1688e-9,71569.8
2.24343e-9,70478.3
2.32063e-9,69405.7
2.4004900000000003e-9,68351.4
2.48309e-9,67315.2
2.5685400000000003e-9,66296.8
2.65692e-9,65295.9
2.74835e-9,64312.1
2.8429300000000002e-9,63345.200000000004
2.9407500000000002e-9,62394.8
3.0419500000000002e-9,61460.7
3.1466300000000003e-9,60542.7
3.2549100000000003e-9,59640.3
3.36691e-9,58753.399999999994
3.48277e-9,57881.600000000006
3.60262e-9,57024.8
3.72659e-9,56182.600000000006
3.85482e-9,55354.799999999996
3.9874700000000005e-9,54541.1
4.12469e-9,53741.399999999994
4.26662e-9,52955.3
4.41344e-9,52182.6
4.56531e-9,51423.1
4.72241e-9,50676.50000000001
4.88491e-9,49942.700000000004
5.05301e-9,49221.399999999994
5.226890000000001e-9,48512.5
5.40675e-9,47815.5
5.592810000000001e-9,47130.5
5.78526e-9,46457.100000000006
5.984340000000001e-9,45795.2
6.19027e-9,45144.6
6.40328e-9,44505.0
6.623630000000001e-9,43876.299999999996
6.85155e-9,43258.4
7.08732e-9,42650.9
7.33121e-9,42053.700000000004
7.58348e-9,41466.799999999996
7.84444e-9,40889.7
8.11437e-9,40322.5
8.411390000000002e-9,39730.4
8.71923e-9,39149.0
9.03838e-9,38578.0
9.36917e-9,38017.4
9.71211e-9,37466.9
1.0067600000000001e-8,36926.299999999996
1.0436099999999999e-8,36395.4
1.0818000000000001e-8,35874.1
1.1214e-8,35362.200000000004
1.1624399999999999e-8,34859.5
1.20499e-8,34365.9
1.24909e-8,33881.1
1.29481e-8,33405.1
1.3422000000000001e-8,32937.6
1.39133e-8,32478.5
1.44225e-8,32027.7
1.49504e-8,31585.0
1.54975e-8,31150.3
1.60648e-8,30723.3
1.66527e-8,30304.1
1.72623e-8,29892.4
1.78941e-8,29488.1
1.8549e-8,29091.0
1.92279e-8,28701.1
1.9931700000000003e-8,28318.1
2.0661200000000003e-8,27942.100000000002
2.14174e-8,27572.800000000003
2.22013e-8,27210.2
2.30626e-8,26833.300000000003
2.39573e-8,26463.600000000002
2.48867e-8,26100.9
2.52522e-8,25963.8
2.5299999999999998e-8,25946.1
2.6281500000000003e-8,25593.2
2.73011e-8,25247.1
2.83603e-8,24907.499999999996
2.94605e-8,24574.4
3.06034e-8,24247.6
3.17907e-8,23927.0
3.3024e-8,23612.4
3.43052e-8,23303.8
3.5636e-8,23001.100000000002
3.70185e-8,22704.100000000002
3.84547e-8,22412.7
3.99465e-8,22126.899999999998
4.1496199999999994e-8,21846.399999999998
4.3106099999999994e-8,21571.3
4.4778399999999994e-8,21301.399999999998
4.66141e-8,21022.0
4.852490000000001e-8,20748.3
5.05143e-8,20480.0
5.2584900000000005e-8,20217.100000000002
5.4740700000000004e-8,19959.4
5.69846e-8,19707.0
5.93208e-8,19459.5
6.175239999999999e-8,19217.1
6.4284e-8,18979.399999999998
6.69191e-8,18746.6
6.96626e-8,18518.3
7.251810000000001e-8,18294.600000000002
7.54911e-8,18075.3
7.875210000000001e-8,17849.3
8.215400000000001e-8,17627.9
8.57029e-8,17411.3
8.9405e-8,17199.100000000002
9.32671e-8,16991.5
9.7296e-8,16788.2
1.01499e-7,16589.2
1.0588299999999998e-7,16394.3
1.10457e-7,16203.6
1.1522899999999999e-7,16016.900000000001
1.2020599999999998e-7,15834.2
1.2566399999999998e-7,15646.4
1.3137e-7,15462.7
1.37335e-7,15283.1
1.43571e-7,15107.4
1.5009e-7,14935.6
1.56905e-7,14767.5
1.64029e-7,14603.2
1.71477e-7,14442.5
1.7926299999999998e-7,14285.300000000001
1.87799e-7,14124.4
1.9674199999999998e-7,13967.099999999999
2.0611e-7,13813.5
2.15925e-7,13663.5
2.2620699999999998e-7,13516.900000000001
2.36978e-7,13373.8
2.48263e-7,13234.0
2.60636e-7,13091.2
2.73625e-7,12951.8
2.87262e-7,12815.8
3.0157699999999995e-7,12683.0
3.16607e-7,12553.5
3.32385e-7,12427.1
3.49688e-7,12298.4
3.67892e-7,12173.0
3.8704399999999996e-7,12050.7
4.07193e-7,11931.5
4.2839099999999996e-7,11815.4
4.5164699999999997e-7,11697.5
4.7616399999999995e-7,11582.699999999999
5.02013e-7,11471.0
5.292639999999999e-7,11362.099999999999
5.57997e-7,11256.1
5.89533e-7,11148.800000000001
6.228519999999999e-7,11044.400000000001
6.58053e-7,10942.9
6.95244e-7,10844.1
7.360909999999999e-7,10744.499999999998
7.793399999999999e-7,10647.599999999999
8.25127e-7,10553.5
8.736079999999999e-7,10462.1
9.268929999999999e-7,10370.1
9.83429e-7,10280.800000000001
1.04247e-6,10195.5
1.12595e-6,10086.5
1.2419599999999999e-6,9954.1
1.3990599999999998e-6,9801.539999999999
1.62073e-6,9626.32
1.9581999999999997e-6,9418.58
2.4330699999999996e-6,9204.35
3.0873599999999996e-6,8996.61
3.9452299999999995e-6,8808.81
5.0768e-6,8641.220000000001
6.6714999999999996e-6,8486.58
8.89123e-6,8351.61
1.2016100000000002e-5,8239.369999999999
1.6701500000000003e-5,8149.07
2.3872300000000005e-5,8091.7300000000005
3.10864e-5,8077.56
4.76574e-5,8114.369999999999
7.947270000000001e-5,8276.24
0.000171733,8875.12
0.00039229200000000003,10392.5
0.000547278,11531.199999999999
0.000681534,12598.3
0.0007995300000000001,13619.6
0.000918168,14733.5
0.0010346900000000002,15934.8
0.0011512199999999999,17256.4
0.0012614000000000002,18635.1
0.0013647000000000002,20054.699999999997
0.0014672700000000001,21605.500000000004
0.00156245,23187.600000000002
0.00165806,24935.2
0.00175315,26849.2
0.00185037,29012.3
0.00194341,31310.2
0.00202278,33465.799999999996
0.00210961,36061.1
0.0021999399999999996,39057.4
0.00228734,42286.799999999996
0.00236017,45265.00000000001
0.0024329900000000003,48523.50000000001
0.00250582,52118.9
0.00257865,56069.4
0.00265148,60447.8
0.00272431,65278.200000000004
0.0027825700000000003,69525.5
0.00284083,74145.0
0.0028990900000000004,79174.4
0.00295736,84654.4
0.00301562,90629.00000000001
0.00307388,97144.5
0.0031321400000000003,104248.99999999999
0.00319041,111989.99999999999
0.0032486700000000004,120414.0
0.00330693,129560.00000000001
0.00336519,139455.0
0.00342346,150111.0
0.00349628,164485.0
0.00356911,179852.0
0.00377303,225278.0
0.00384586,240260.0
0.00390412,250656.0
0.0039551,258052.0
0.0039988,262825.0
0.0040425,265909.0
0.00408619,267135.0
0.00409347,267167.0
0.00413717,266110.0
0.00418087,263079.0
0.00421,260012.0
0.0042537,253910.0
0.00429739,246193.99999999997
0.004341090000000001,237056.99999999997
0.00437022,230688.0
0.00442848,216523.99999999997
0.00457707,178321.0
0.00462539,166204.0
0.00467416,154570.0
0.00473436,141229.0
0.00477806,132353.0
0.0048217600000000005,124120.99999999999
0.00486545,116679.0
0.00490915,109922.00000000001
0.004952160000000001,104081.0
0.00498129,100535.0
0.005011110000000001,97273.5
0.00504024,94458.8
0.00506937,92025.7
0.0050985,89993.20000000001
0.00511307,89093.3
0.0051422,87709.2
0.00517133,86801.9
0.00520046,86432.7
0.00523324,86743.7
0.00525873,87591.59999999999
0.00528057,88836.5
0.0053024199999999995,90583.4
0.005324270000000001,92984.9
0.00533884,94972.7
0.0053533999999999995,97325.70000000001
0.00536797,100092.0
0.00538253,103326.99999999999
0.00538982,105106.00000000001
0.005404379999999999,109171.0
0.00541895,113898.00000000001
0.00543218,118854.0
0.0054454,124519.0
0.005457290000000001,130327.0
0.00546918,136897.0
0.005483399999999999,145871.0
0.00549247,152362.0
0.00550113,159138.0
0.00550979,166545.0
0.005518449999999999,174637.0
0.005527110000000001,183463.0
0.005535770000000001,193070.0
0.00554443,203497.0
0.00555309,214766.0
0.00556608,233218.0
0.00557907,253431.0
0.00560938,303844.0
0.00561912,319150.0
0.00562887,332688.0
0.00563753,342490.0
0.0056440200000000005,348016.0
0.0056494299999999996,351138.0
0.00565593,352980.0
0.00565917,353076.0
0.00566567,351558.0
0.005672170000000001,347794.0
0.00567866,341783.0
0.00568515,333772.0
0.00569165,323967.0
0.00570248,304468.0
0.00571601,276831.0
0.005734950000000001,236737.00000000003
0.0057436100000000006,219196.0
0.00575227,202622.0
0.00576093,187195.0
0.0057652599999999995,179912.0
0.00577392,166345.0
0.005782580000000001,154018.0
0.0057912400000000004,142882.0
0.0057999,132867.0
0.00580856,123886.99999999999
0.00581722,115853.99999999999
0.005825879999999999,108680.0
0.00583454,102267.0
0.00584305,96648.70000000001
0.00585155,91655.09999999999
0.00585722,88624.50000000001
0.00586683,83993.2
0.00587644,79926.9
0.00588605,76367.0
0.0058956600000000005,73260.0
0.0059069000000000005,70124.9
0.0059181400000000006,67454.8
0.00592939,65202.1
0.00594063,63317.4
0.005951870000000001,61758.9
0.005963110000000001,60491.1
0.005974350000000001,59483.49999999999
0.005985590000000001,58710.3
0.0060024499999999995,57950.5
0.00600807,57779.100000000006
0.006030560000000001,57570.7
0.0060474199999999995,57815.899999999994
0.00606428,58362.9
0.00607552,58894.9
0.006098,60307.00000000001
0.00612049,62152.5
0.00614297,64407.50000000001
0.00616545,67050.90000000001
0.0061879299999999995,70067.2
0.00621042,73445.7
0.0062329,77178.0
0.00625538,81257.7
0.0062778700000000005,85678.59999999999
0.00630035,90434.2
0.00632283,95516.6
0.006356550000000001,103753.99999999999
0.00639028,112610.00000000001
0.00643524,125350.99999999999
0.00649145,142349.0
0.00659262,173607.0
0.0066375900000000005,186505.0
0.006671310000000001,195312.0
0.00670503,203020.99999999997
0.00674101,210004.0
0.00677304,214808.99999999997
0.00680621,218577.99999999997
0.00683993,220885.0
0.00687927,221971.0
0.00691862,221301.0
0.0069635800000000005,218828.99999999997
0.00700855,214930.99999999997
0.007087240000000001,205966.0
0.00719965,192062.0
0.0072671,184734.0
0.00731206,180617.0
0.0073345500000000004,178762.0
0.00737951,175863.0
0.0074374,173542.0
0.00748242,172868.0
0.00752626,173315.0
0.00756984,174835.0
0.00761342,177477.0
0.00765701,181271.0
0.00770059,186225.0
0.007744170000000001,192317.0
0.00778775,199479.0
0.007831340000000001,207585.0
0.00790216,222243.0
0.00799477,241723.0
0.00801656,246061.0
0.00806015,253674.0
0.00810373,259660.0
0.00813642,262751.0
0.00818,264899.0
0.00818872,264998.0
0.00822358,264367.0
0.008256270000000001,262408.0
0.00828896,259025.00000000003
0.00832164,254301.99999999997
0.008343439999999999,250861.0
0.00838702,242438.00000000003
0.0084306,232826.99999999997
0.00852866,209034.0
0.008615830000000001,187741.0
0.0086812,172754.0
0.008724790000000001,163366.0
0.008768370000000001,154536.0
0.008811949999999999,146275.0
0.00885553,138577.0
0.00889912,131422.0
0.008942700000000001,124783.0
0.008986280000000001,118627.0
0.009029859999999999,112923.0
0.00907345,107634.00000000001
0.00911703,102729.0
0.00916061,98175.9
0.009204200000000001,93945.1
0.00926957,88118.9
0.00933494,82924.0
0.00940032,78193.3
0.00946569,73946.4
0.009531069999999999,70056.59999999999
0.00959644,66540.7
0.00968361,62299.4
0.009770770000000002,58517.9
0.009857939999999999,55129.6
0.0099451,52079.4
0.0100541,48668.8
0.0101412,46223.5
0.0102284,43992.7
0.010342800000000001,41352.6
0.010424500000000001,39628.5
0.010511699999999999,37934.5
0.010634300000000001,35771.6
0.010774500000000001,33549.3
0.0109107,31621.3
0.0110129,30298.8
0.0111218,28999.5
0.0112308,27797.6
0.011394200000000002,26155.300000000003
0.0115577,24681.199999999997
0.011748300000000001,23143.4
0.0119227,21897.600000000002
0.0120116,21369.2
0.0120433,21278.7
0.012061,21350.8
0.0120711,21527.2
0.0120771,21750.1
0.0120811,21999.300000000003
0.012084,22278.899999999998
0.012087,22690.600000000002
0.0120894,23169.0
0.0120909,23605.800000000003
0.012092499999999999,24185.0
0.0120938,24831.6
0.0120949,25508.5
0.012095700000000001,26139.0
0.0120965,26907.800000000003
0.0120973,27854.5
0.0120979,28685.999999999996
0.012098500000000002,29754.7
0.012099100000000002,31030.3
0.0120996,32146.8
0.0121001,33419.7
0.0121006,34831.2
0.012101,36425.8
0.012101500000000001,38219.5
0.012102,40224.799999999996
0.0121024,42451.100000000006
0.012102900000000002,44901.4
0.012103200000000001,46657.799999999996
0.0121038,50450.299999999996
0.0121044,54571.50000000001
0.012105600000000001,62975.2
0.0121064,68973.2
0.012107000000000001,72737.9
0.0121075,76015.8
0.012108,78731.9
0.0121086,80934.9
0.0121091,82539.09999999999
0.0121095,83371.3
0.012110000000000001,83728.70000000001
0.012110399999999999,83508.20000000001
0.0121108,82850.7
0.0121112,81760.2
0.0121116,80269.99999999999
0.0121122,77726.6
0.0121127,74649.3
0.0121132,71111.4
0.012114100000000001,65234.8
0.0121152,57178.899999999994
0.012115800000000001,52895.399999999994
0.012116400000000001,48893.4
0.0121171,45241.9
0.012117500000000002,42756.600000000006
0.012118,40495.0
0.012118400000000001,38454.0
0.0121189,36626.5
0.0121194,34998.8
0.0121198,33557.0
0.0121203,32264.2
0.012120800000000001,31093.199999999997
0.012121400000000001,29758.399999999998
0.0121221,28643.100000000002
0.0121227,27709.199999999997
0.012123600000000002,26698.1
0.0121245,25885.8
0.012124999999999999,25431.0
0.0121262,24681.3
0.0121273,24093.5
0.0121289,23479.800000000003
0.0121304,23011.4
0.012132700000000001,22489.7
0.012135100000000001,22110.8
0.0121382,21745.3
0.012142100000000001,21424.0
0.0121468,21157.6
0.012155100000000002,20858.0
0.0121688,20573.5
0.0121881,20333.0
0.0122384,19934.2
0.012369900000000001,19148.4
0.0125926,17989.6
0.0128328,16877.7
0.0129398,16434.8
0.0129432,16429.6
0.012948,16465.7
0.01295,16576.3
0.0129511,16729.6
0.0129522,16977.3
0.012953,17254.6
0.012953699999999999,17568.9
0.0129545,18054.399999999998
0.012955399999999999,18702.399999999998
0.012957300000000001,20161.4
0.012958,20664.4
0.0129586,21023.2
0.0129592,21234.600000000002
0.012959700000000001,21350.5
0.012960000000000001,21363.1
0.0129605,21310.899999999998
0.012961100000000001,21154.3
0.0129616,20903.5
0.0129625,20336.9
0.012964700000000001,18603.7
0.012965500000000001,18064.5
0.0129663,17607.2
0.012967,17256.100000000002
0.0129677,16984.1
0.0129688,16709.9
0.012969900000000001,16533.2
0.0129714,16415.8
0.0129741,16336.3
0.0129873,16239.5
0.013183499999999999,15457.4
0.0134423,14536.800000000001
0.013715999999999999,13654.900000000001
0.014031199999999999,12747.3
0.014358200000000002,11902.900000000001
0.014443600000000001,11714.9
0.014447399999999999,11713.6
0.0144551,11744.4
0.0144574,11803.9
0.014458899999999998,11903.1
0.01446,12047.9
0.014461,12248.4
0.014461900000000001,12517.5
0.0144627,12890.4
0.0144635,13314.2
0.0144642,13830.199999999999
0.014465200000000001,14588.9
0.0144671,16331.7
0.0144678,16841.1
0.0144685,17310.1
0.014469000000000001,17529.3
0.0144695,17661.0
0.01447,17699.2
0.014470400000000001,17666.9
0.0144709,17543.899999999998
0.0144714,17331.5
0.0144719,17040.8
0.0144725,16637.0
0.0144733,15965.800000000001
0.014475,14411.6
0.014476000000000001,13671.5
0.014476800000000001,13155.9
0.0144775,12777.7
0.014478200000000002,12478.1
0.0144788,12270.7
0.0144797,12045.8
0.014480699999999999,11899.5
0.0144819,11789.6
0.0144838,11701.999999999998
0.0144882,11637.1
0.0145039,11566.099999999999
0.0147213,11062.9
0.0150481,10380.7
0.015437300000000001,9643.65
0.015858,8920.23
0.016020200000000002,8668.12
0.0160217,8667.84
0.016027,8687.69
0.016028800000000003,8728.300000000001
0.01603,8791.779999999999
0.016031200000000002,8897.41
0.0160323,9053.789999999999
0.0160333,9245.88
0.016034600000000003,9570.15
0.0160371,10353.699999999999
0.0160382,10633.0
0.016038900000000002,10763.6
0.0160396,10830.699999999999
0.016040000000000002,10839.0
0.0160407,10807.3
0.0160414,10709.900000000001
0.0160421,10572.2
0.0160433,10237.199999999999
0.0160454,9578.92
0.0160466,9260.66
0.0160475,9064.0
0.0160485,8903.050000000001
0.0160497,8785.25
0.016051100000000002,8700.369999999999
0.0160528,8652.02
0.0160582,8611.88
0.0161774,8413.39
0.016673800000000003,7679.12
0.017538400000000003,6487.71
0.0180248,5807.5
0.018295,5398.84
0.0185111,5037.33
0.0186732,4733.86
0.0188083,4449.639999999999
0.0189164,4194.21
0.0190164,3929.25
0.019094800000000002,3698.54
0.0191758,3437.09
0.0193055,2992.57
0.019337899999999998,2891.9
0.0193623,2827.88
0.0193866,2781.01
0.0194048,2763.14
0.019410900000000002,2761.34
0.0194241,2767.96
0.019437199999999998,2791.07
0.0194499,2833.5699999999997
0.0194617,2895.82
0.0194695,2952.27
0.019477400000000002,3022.54
0.0194855,3113.02
0.0194936,3225.38
0.0194996,3326.39
