E(MeV),xs(mb)
1.0e-11,209403.0
1.03223e-11,206135.0
1.06549e-11,202918.99999999997
1.0998399999999998e-11,199753.0
1.13527e-11,196639.0
1.1718599999999999e-11,193573.0
1.2096199999999998e-11,190557.0
1.24861e-11,187587.0
1.2888399999999999e-11,184666.0
1.3303799999999998e-11,181790.0
1.37325e-11,178961.0
1.41751e-11,176176.0
1.4631799999999997e-11,173436.0
1.51034e-11,170739.0
1.5590099999999998e-11,168086.0
1.6092599999999998e-11,165474.0
1.66111e-11,162905.0
1.71465e-11,160375.0
1.7699e-11,157887.0
1.8269399999999998e-11,155438.0
1.88581e-11,153029.0
1.94659e-11,150657.0
2.00931e-11,148324.0
2.0740699999999998e-11,146028.0
2.1408999999999998e-11,143768.0
2.2099099999999997e-11,141545.0
2.28111e-11,139358.0
2.3546399999999998e-11,137205.0
2.4305099999999997e-11,135087.0
2.50884e-11,133002.0
2.5896799999999997e-11,130952.0
2.67315e-11,128934.0
2.75928e-11,126949.0
2.8482199999999998e-11,124994.99999999999
2.93999e-11,123073.00000000001
3.0347499999999995e-11,121181.99999999999
3.13253e-11,119321.00000000001
3.2335e-11,117490.0
3.33769e-11,115689.0
3.44526e-11,113917.0
3.55627e-11,112174.0
3.67089e-11,110457.99999999999
3.7891799999999997e-11,108771.0
3.9113e-11,107110.0
4.0373400000000003e-11,105477.0
4.1674599999999996e-11,103870.0
4.3017399999999996e-11,102289.99999999999
4.440389999999999e-11,100733.99999999999
4.58347e-11,99204.9
4.7311899999999994e-11,97699.9
4.883639999999999e-11,96219.7
5.0410399999999995e-11,94763.40000000001
5.20348e-11,93331.2
5.37119e-11,91922.09999999999
5.54426e-11,90536.4
5.7229499999999995e-11,89173.1
5.907359999999999e-11,87832.5
6.09775e-11,86513.6
6.29424e-11,85216.6
6.497099999999999e-11,83940.90000000001
6.70645e-11,82686.3
6.9226e-11,81452.3
7.145659999999999e-11,80238.9
7.37596e-11,79045.4
7.61364e-11,77872.0
7.85902e-11,76717.8
8.11227e-11,75583.0
8.37372e-11,74466.90000000001
8.643549999999999e-11,73369.7
8.922119999999998e-11,72290.59999999999
9.209619999999999e-11,71229.8
9.506439999999999e-11,70186.59999999999
9.81277e-11,69161.2
1.01291e-10,68152.7
1.04554e-10,67161.6
1.07924e-10,66186.9
1.11402e-10,65229.100000000006
1.1499200000000001e-10,64287.200000000004
1.1869700000000001e-10,63361.700000000004
1.22523e-10,62451.600000000006
1.26471e-10,61557.399999999994
1.30547e-10,60678.1
1.34754e-10,59814.299999999996
1.39391e-10,58909.1
1.44187e-10,58020.50000000001
1.4914900000000001e-10,57148.3
1.5428100000000002e-10,56292.200000000004
1.5959000000000001e-10,55452.0
1.65082e-10,54627.299999999996
1.7076300000000001e-10,53818.1
1.76639e-10,53023.9
1.82717e-10,52244.6
1.89005e-10,51479.9
1.95508e-10,50729.7
2.02236e-10,49993.600000000006
2.0919500000000002e-10,49271.399999999994
2.1639400000000002e-10,48563.0
2.2384e-10,47868.1
2.31543e-10,47186.399999999994
2.39511e-10,46517.9
2.47752e-10,45862.2
2.56278e-10,45219.1
2.65097e-10,44588.5
2.74219e-10,43970.200000000004
2.83655e-10,43363.899999999994
2.93416e-10,42769.399999999994
3.0351300000000005e-10,42186.700000000004
3.13957e-10,41615.399999999994
3.24761e-10,41055.4
3.3593600000000005e-10,40506.399999999994
3.47496e-10,39968.4
3.59454e-10,39441.1
3.7182300000000004e-10,38924.4
3.85434e-10,38386.7
3.99539e-10,37860.6
4.14164e-10,37345.700000000004
4.2932100000000003e-10,36842.0
4.4503700000000007e-10,36349.1
4.6132400000000005e-10,35867.0
4.7821e-10,35395.3
4.95711e-10,34933.9
5.13856e-10,34482.6
5.32662e-10,34041.299999999996
5.521600000000001e-10,33609.6
5.72367e-10,33187.6
5.933180000000001e-10,32774.8
6.15032e-10,32371.3
6.37545e-10,31976.7
6.62279e-10,31568.6
6.87972e-10,31170.100000000002
7.14661e-10,30781.100000000002
7.42387e-10,30401.4
7.71188e-10,30030.7
8.011060000000001e-10,29668.899999999998
8.32185e-10,29315.8
8.644690000000001e-10,28971.100000000002
8.980060000000001e-10,28634.7
9.34817e-10,28288.5
9.731410000000001e-10,27950.9
1.0130300000000002e-9,27622.100000000002
1.05456e-9,27301.5
1.0977900000000002e-9,26989.2
1.1428e-9,26684.7
1.18964e-9,26388.1
1.23841e-9,26098.9
1.29191e-9,25802.6
1.34771e-9,25514.100000000002
1.40593e-9,25233.4
1.4666600000000002e-9,24960.100000000002
1.53002e-9,24694.1
1.59611e-9,24435.3
1.66858e-9,24170.899999999998
1.74435e-9,23913.8
1.8235500000000002e-9,23663.9
1.90635e-9,23420.899999999998
1.99291e-9,23184.6
2.0878100000000005e-9,22944.100000000002
2.1872200000000002e-9,22710.499999999996
2.2913800000000004e-9,22483.6
2.4004900000000003e-9,22263.199999999997
2.52013e-9,22039.399999999998
2.64571e-9,21822.4
2.77757e-9,21611.699999999997
2.91599e-9,21407.3
3.0677900000000002e-9,21200.5
3.22749e-9,20999.9
3.39551e-9,20805.4
3.57227e-9,20616.9
3.7662000000000005e-9,20426.600000000002
3.97064e-9,20242.2
4.1862e-9,20063.6
4.42279e-9,19883.8
4.67276e-9,19709.8
4.93685e-9,19541.3
5.226890000000001e-9,19372.100000000002
5.534e-9,19208.6
5.859130000000001e-9,19050.4
6.216500000000001e-9,18891.899999999998
6.595670000000001e-9,18738.7
7.0128000000000004e-9,18585.6
7.45628e-9,18437.8
7.92783e-9,18295.1
8.44703e-9,18152.8
9.00024e-9,18015.5
9.60995e-9,17878.8
1.0261e-8,17747.1
1.0979300000000002e-8,17616.3
1.1748e-8,17490.3
1.2597e-8,17365.4
1.3507400000000002e-8,17245.2
1.45143e-8,17126.2
1.56292e-8,17008.600000000002
1.6829799999999998e-8,16895.8
1.81609e-8,16784.5
1.96388e-8,16674.8
2.1237e-8,16569.8
2.30139e-8,16466.5
2.4992200000000004e-8,16365.199999999999
2.52522e-8,16352.800000000001
2.5299999999999998e-8,16350.499999999998
2.7533e-8,16251.9
3.00266e-8,16155.3
3.2745799999999997e-8,16063.199999999999
3.5787e-8,15973.3
3.9193600000000005e-8,15885.499999999998
4.3015100000000004e-8,15800.0
4.7309099999999996e-8,15716.9
5.2142e-8,15636.2
5.77122e-8,15556.300000000001
6.40127e-8,15479.0
7.11513e-8,15404.4
7.942100000000001e-8,15331.2
8.883940000000001e-8,15260.7
9.95853e-8,15193.099999999999
1.12104e-7,15127.0
1.26731e-7,15062.800000000001
1.4387499999999998e-7,15000.500000000002
1.64029e-7,14940.3
1.87799e-7,14882.2
2.15925e-7,14826.5
2.49315e-7,14773.0
2.89701e-7,14721.2
3.38771e-7,14671.199999999999
3.98673e-7,14623.1
4.7215299999999993e-7,14577.199999999999
5.62736e-7,14533.3
6.76392e-7,14491.199999999999
8.199109999999999e-7,14450.9
1.00444e-6,14412.1
1.40886e-6,14354.6
3.0873599999999996e-6,14246.300000000001
8.23166e-6,14130.5
2.9455000000000002e-5,13915.5
0.000113045,13299.6
0.000188512,12758.9
0.000206479,12574.8
0.000215285,12424.599999999999
0.00022054100000000002,12267.2
0.000224482,12063.8
0.000226157,11975.6
0.00022651800000000002,11974.400000000001
0.000226978,12005.8
0.00022738900000000004,12101.599999999999
0.000227635,12223.4
0.00022778999999999999,12344.800000000001
0.00022794400000000003,12522.9
0.00022806000000000004,12714.2
0.00022817500000000003,12983.0
0.000228253,13226.4
0.00022832900000000002,13540.7
0.00022840500000000002,13957.2
0.000228456,14311.7
0.00022850700000000003,14746.2
0.00022855800000000002,15281.1
0.00022859600000000005,15763.199999999999
0.00022863400000000002,16328.3
0.00022867600000000003,17061.0
0.000228709,17731.8
0.000228742,18500.1
0.00022877500000000002,19378.6
0.000228808,20381.7
0.000228841,21524.2
0.00022887300000000002,22822.6
0.00022890600000000002,24293.5
0.00022893900000000003,25954.8
0.000228964,27336.5
0.00022898800000000004,28842.8
0.000229013,30481.5
0.00022903799999999998,32259.699999999997
0.00022905400000000002,33526.3
0.000229087,36263.1
0.00022912,39283.4
0.000229153,42599.799999999996
0.00022918500000000002,46222.0
0.000229222,50670.700000000004
0.00022925900000000002,55517.3
0.000229296,60757.399999999994
0.00022933300000000002,66377.4
0.00022937,72354.8
0.000229417,80386.0
0.00022947400000000002,90821.90000000001
0.000229632,120717.00000000001
0.000229685,130263.0
0.000229737,139137.0
0.00022979,147055.0
0.00022982900000000003,152207.0
0.00022986900000000003,156571.0
0.000229895,159000.0
0.00022994,162179.0
0.000229979,163939.0
0.00023001600000000001,164669.0
0.000230028,164708.0
0.00023006600000000002,164204.0
0.00023009900000000002,163013.0
0.00023014700000000002,160061.0
0.000230179,157381.0
0.00023021500000000003,153570.0
0.000230252,149094.0
0.00023030000000000001,142493.0
0.000230347,135117.0
0.00023039900000000003,126257.0
0.000230583,93507.9
0.00023062800000000003,85907.7
0.000230673,78668.4
0.00023071700000000002,71861.5
0.00023076200000000002,65538.2
0.000230795,61215.6
0.000230828,57177.8
0.00023086099999999998,53425.9
0.00023089300000000003,49957.399999999994
0.00023092600000000003,46765.7
0.000230959,43842.0
0.00023099200000000001,41174.299999999996
0.000231025,38749.6
0.000231058,36553.0
0.00023109000000000004,34569.200000000004
0.00023112300000000002,32782.200000000004
0.00023115600000000002,31176.2
0.000231189,29735.399999999998
0.000231222,28444.699999999997
0.000231255,27289.500000000004
0.00023129900000000002,25909.2
0.000231335,24948.399999999998
0.000231383,23834.7
0.00023143,22884.1
0.000231478,22069.800000000003
0.000231526,21368.9
0.00023159700000000003,20489.4
0.000231669,19771.3
0.000231739,19182.1
0.00023181,18685.1
0.00023191600000000003,18069.3
0.000232022,17568.5
0.000232163,17027.8
0.00023231600000000002,16559.8
0.00023248000000000002,16152.9
0.000232726,15673.900000000001
0.00023289,15417.9
0.00023321900000000003,15011.2
0.000233547,14703.1
0.00023404,14360.1
0.000234533,14109.3
0.00023519000000000003,13864.2
0.00023617499999999998,13611.2
0.00023716,13437.9
0.000238802,13244.199999999999
0.000240773,13095.000000000002
0.00024417,12936.8
0.000250495,12773.8
0.000262798,12605.3
0.000291026,12380.1
0.00036296,11969.099999999999
0.000492416,11349.400000000001
0.000655016,10669.699999999999
0.000845169,9964.880000000001
0.0010784,9188.050000000001
0.00134421,8372.09
0.00135091,8362.33
0.0013555,8384.2
0.00135712,8428.890000000001
0.00135784,8481.640000000001
0.00135832,8558.880000000001
0.0013586800000000001,8674.480000000001
0.00135892,8805.06
0.00135913,8978.949999999999
0.00135931,9193.93
0.0013594500000000001,9404.51
0.0013595900000000001,9666.24
0.0013597300000000002,9987.18
0.00135984,10268.6
0.00135995,10625.199999999999
0.00136007,11032.4
0.00136018,11491.7
0.00136034,12184.6
0.0013604799999999998,12912.8
0.0013606199999999999,13706.199999999999
0.0013609100000000001,15417.8
0.0013611200000000002,16682.2
0.0013613100000000001,17744.8
0.0013614599999999999,18479.5
0.00136158,18937.600000000002
0.00136169,19299.9
0.0013618200000000001,19567.9
0.0013619300000000001,19697.0
0.0013620000000000001,19720.6
0.00136212,19652.7
0.00136224,19445.399999999998
0.00136238,19062.8
0.00136246,18786.9
0.0013626100000000002,18118.1
0.0013627700000000001,17302.9
0.00136297,16153.4
0.0013633200000000001,14026.099999999999
0.00136351,12951.699999999999
0.00136365,12219.1
0.0013637999999999999,11561.9
0.00136392,11066.3
0.00136404,10629.599999999999
0.0013641600000000001,10250.0
0.00136429,9924.5
0.00136442,9628.43
0.00136455,9384.21
0.00136473,9127.59
0.0013649,8935.5
0.00136511,8774.330000000002
0.00136534,8649.44
0.0013656900000000001,8536.42
0.0013661600000000002,8457.35
0.0013668800000000002,8399.98
0.0013685000000000001,8345.15
0.00137309,8295.06
0.0014081999999999999,8171.569999999999
0.00165401,7397.389999999999
0.0017871999999999999,6935.05
0.00188244,6565.8
0.00196326,6210.12
0.00202612,5894.96
0.0020800000000000003,5586.25
0.0021249,5292.4800000000005
0.0021608200000000004,5026.030000000001
0.00218776,4803.19
0.0022147,4556.29
0.00224164,4280.33
0.0022596,4077.24
0.0022775599999999997,3856.3900000000003
0.0022955199999999997,3615.46
0.0023089900000000003,3420.02
0.00232246,3210.63
0.00233593,2986.42
0.0023494,2746.77
0.00236287,2491.86
0.00237943,2160.34
0.00240132,1710.46
0.00240889,1562.26
0.00241529,1446.73
0.00242009,1369.4599999999998
0.00242427,1311.5
0.00242814,1267.96
0.0024307300000000003,1245.56
0.0024331900000000004,1230.6999999999998
0.0024355500000000003,1223.11
0.00243673,1222.07
0.0024391400000000002,1226.81
0.00244095,1236.9699999999998
0.00244276,1253.3600000000001
0.00244457,1276.84
0.00244638,1308.27
0.0024482400000000004,1349.54
0.00245009,1401.43
0.00245132,1442.73
0.0024525600000000003,1489.85
0.0024537900000000004,1543.28
0.00245503,1603.54
0.00245626,1671.24
0.0024573800000000003,1739.8
0.00245851,1815.58
0.0024596300000000004,1899.1899999999998
0.00246075,1991.25
0.0024618699999999997,2092.48
0.0024630000000000003,2203.64
0.0024641199999999998,2325.56
0.00246524,2459.18
0.00246625,2590.27
0.00246726,2732.45
0.00246827,2886.6
0.00246928,3053.69
0.00247029,3234.76
0.0024713,3430.9599999999996
0.0024723099999999997,3643.53
0.00247332,3873.8700000000003
0.00247422,4094.7500000000005
0.00247512,4332.01
0.0024760200000000002,4586.92
0.0024769199999999996,4860.86
0.00247781,5155.33
0.00247871,5471.99
0.00247961,5812.66
0.0024805100000000004,6179.35
0.00248158,6654.92
0.00248265,7174.74
0.00248373,7742.88
0.0024848,8364.39
0.0024858799999999998,9045.72
0.0024869500000000004,9798.06
0.00248804,10627.800000000001
0.0024891200000000005,11541.6
0.0024902,12549.1
0.0024912800000000002,13661.5
0.00249234,14863.1
0.00249335,16127.499999999998
0.00249436,17520.3
0.00249537,19057.4
0.00249638,20757.3
0.0024970500000000002,21990.9
0.00249802,23914.8
0.0024989599999999997,25990.899999999998
0.0024998999999999998,28285.9
0.0025008499999999998,30828.1
0.00250148,32676.0
0.0025021,34658.799999999996
0.00250296,37587.0
0.0025037699999999998,40641.100000000006
0.0025045700000000002,44000.5
0.00250538,47702.600000000006
0.00250619,51789.4
0.0025069800000000002,56177.6
0.00250772,60735.200000000004
0.00250846,65749.2
0.0025092,71273.5
0.00250994,77370.09999999999
0.00251068,84111.1
0.0025113500000000003,90867.90000000001
0.00251203,98294.20000000001
0.0025127,106467.0
0.00251337,115469.0
0.0025140500000000003,125394.99999999999
0.00251468,135582.0
0.0025152800000000004,146338.0
0.0025158900000000002,158098.0
0.0025165,170956.0
0.0025171,185009.0
0.0025177100000000003,200356.99999999997
0.00251831,217101.0
0.00251892,235333.0
0.0025195300000000003,255135.99999999997
0.00252013,276573.0
0.00252074,299669.0
0.00252134,324409.0
0.00252215,359806.0
0.00252296,397583.0
0.0025255,521982.00000000006
0.0025264099999999998,563127.0
0.00252702,587304.0
0.00252764,607939.0
0.00252825,624321.0
0.00252886,635898.0
0.0025293800000000003,641706.0
0.0025299000000000003,643672.0
0.00253042,641833.0
0.00253094,636343.0
0.00253146,627475.0
0.00253199,615589.0
0.0025326800000000003,595780.0
0.0025333800000000004,572443.0
0.00253442,533165.0
0.00253672,441865.00000000006
0.00253767,406436.0
0.0025386099999999997,373367.0
0.0025395500000000002,342974.0
0.0025404900000000003,315335.0
0.0025414400000000003,290373.0
0.0025423800000000003,267923.0
0.00254332,247776.0
0.00254427,229711.0
0.00254521,213508.0
0.00254593,202284.0
0.00254674,190700.0
0.00254754,180113.0
0.00254835,170424.0
0.00254916,161540.0
0.00254997,153382.0
0.00255078,145877.0
0.00255199,135705.0
0.0025528900000000004,128911.0
0.0025537800000000003,122675.0
0.00255513,114240.99999999999
0.0025564800000000003,106763.99999999999
0.00255783,100106.99999999999
0.00255917,94154.0
0.00256072,88054.40000000001
0.0025622699999999997,82638.8
0.00256382,77809.0
0.0025653700000000004,73484.6
0.0025669200000000003,69593.7
0.00256869,65589.9
0.0025705800000000003,61790.200000000004
0.00257246,58400.100000000006
0.00257435,55362.0
0.0025762299999999997,52628.899999999994
0.0025781700000000003,50098.3
0.00258019,47700.6
0.00258288,44850.6
0.00258557,42337.2
0.00258827,40107.2
0.00259096,38117.700000000004
0.00259366,36333.6
0.0025963500000000003,34726.0
0.00259904,33271.299999999996
0.0026030899999999997,31333.199999999997
0.00260713,29640.8
0.00261117,28151.899999999998
0.0026152099999999998,26833.2
0.00261925,25658.1
0.0026237400000000003,24495.0
0.00262845,23413.9
0.0026331699999999998,22445.7
0.00263945,21308.699999999997
0.00264574,20318.0
0.00265248,19388.7
0.00265921,18572.4
0.0026659500000000003,17850.0
0.00267268,17206.9
0.00268278,16363.9
0.0026928800000000004,15639.5
0.0027029899999999997,15010.5
0.00271309,14459.4
0.0027265600000000003,13822.6
0.00274003,13275.6
0.0027535,12800.5
0.00277146,12256.3
0.00278942,11791.5
0.0028073800000000004,11389.7
0.00283432,10878.5
0.00286126,10451.1
0.0028882,10087.0
0.00292412,9675.67
0.00296453,9289.0
0.0030139200000000002,8892.44
0.0030678000000000003,8529.8
0.00312809,8185.420000000001
0.0031355400000000005,8153.91
0.00313713,8166.370000000001
0.00313805,8214.740000000002
0.0031385700000000002,8279.18
0.003139,8364.72
0.00313956,8526.75
0.00314013,8744.41
0.0031409,9062.849999999999
0.00314137,9212.820000000002
0.00314175,9279.84
0.003142,9292.529999999999
0.0031423899999999997,9257.880000000001
0.0031428,9158.2
0.0031432400000000003,8997.3
0.0031441900000000003,8592.85
0.0031447099999999998,8412.449999999999
0.0031453500000000003,8259.72
0.0031458400000000004,8186.89
0.00314668,8123.889999999999
0.0031485500000000004,8086.499999999999
0.0031955300000000002,7848.849999999999
0.0032876900000000002,7448.389999999999
0.0034325199999999997,6890.58
0.0035781299999999997,6362.2699999999995
0.0035834800000000004,6352.44
0.00358696,6367.49
0.0035879500000000003,6395.08
0.0035886100000000003,6444.16
0.00358909,6518.2
0.00358941,6598.77
0.0035897299999999997,6716.03
0.0035899800000000004,6838.82
0.0035902300000000002,6996.53
0.00359048,7195.11
0.0035907300000000003,7439.8099999999995
0.00359092,7662.16
0.0035912,8053.000000000001
0.00359149,8510.83
0.0035917699999999998,9020.519999999999
0.00359225,9973.25
0.00359265,10764.7
0.00359292,11264.300000000001
0.0035931500000000002,11622.9
0.00359341,11954.3
0.00359365,12160.4
0.00359383,12249.4
0.003594,12275.400000000001
0.00359419,12239.800000000001
0.0035943999999999998,12123.8
0.00359464,11896.599999999999
0.0035948000000000004,11689.7
0.00359507,11262.8
0.00359537,10716.300000000001
0.00359612,9215.12
0.00359646,8576.76
0.00359674,8126.63
0.0035970100000000003,7736.4800000000005
0.0035972200000000004,7477.0
0.00359746,7226.06
0.00359771,7019.910000000001
0.00359795,6853.94
0.0035981900000000002,6720.75
0.00359844,6616.17
0.00359882,6504.96
0.00359931,6417.639999999999
0.0036000100000000003,6354.42
0.0036009600000000003,6319.099999999999
0.00360314,6287.530000000001
0.0036142500000000003,6227.68
0.00367996,5995.96
0.00371689,5897.17
0.0037380399999999998,5867.4
0.0037438099999999998,5865.11
0.00375997,5879.679999999999
0.0037729,5922.5
0.0037835100000000003,5989.410000000001
0.0037932100000000004,6085.66
0.00380244,6222.76
0.0038086,6347.57
0.00381475,6507.62
0.0038209,6713.099999999999
0.0038255200000000002,6905.160000000001
0.00383014,7138.14
0.00383475,7421.929999999999
0.00383783,7645.5599999999995
0.0038409100000000003,7902.19
0.00384399,8197.6
0.00384706,8538.79
0.00385029,8955.76
0.0038528300000000002,9333.32
0.0038553700000000003,9761.84
0.00385791,10250.300000000001
0.00386045,10811.3
0.00386293,11440.4
0.00386528,12126.9
0.0038676400000000003,12914.2
0.00386921,13503.099999999999
0.00387078,14151.6
0.00387235,14868.4
0.00387391,15662.6
0.00387531,16444.7
0.00387716,17596.8
0.0038783900000000002,18451.3
0.0038796200000000003,19384.2
0.0038808500000000004,20404.6
0.00388209,21522.7
0.00388332,22750.4
0.00388455,24101.2
0.00388602,25906.699999999997
0.00388701,27236.600000000002
0.00388799,28679.800000000003
0.00388898,30248.300000000003
0.00388996,31955.7
0.0038909500000000002,33816.9
0.00389193,35849.2
0.00389286,37926.9
0.0038937200000000003,40032.6
0.00389458,42315.4
0.00389544,44793.3
0.0038963,47485.9
0.00389716,50415.0
0.00389803,53604.5
0.0038988900000000003,57080.399999999994
0.00389966,60449.0
0.0039006699999999997,65316.299999999996
0.0039016899999999998,70713.0
0.0039027,76699.59999999999
0.00390372,83341.4
0.00390474,90704.7
0.00390575,98852.49999999999
0.0039067699999999995,107837.0
0.00390778,117693.0
0.0039088,128431.0
0.00390981,140023.0
0.00391092,153551.0
0.0039124599999999995,173492.0
0.00391477,203892.0
0.00391592,217955.0
0.00391678,227294.00000000003
0.00391773,236036.0
0.00391844,241271.0
0.003919150000000001,245210.00000000003
0.00391986,247746.99999999997
0.00392042,248715.99999999997
0.00392074,248862.0
0.0039215,248017.00000000003
