E(MeV),xs(mb)
1.0e-11,913838.0
1.03223e-11,899497.0
1.06549e-11,885389.0
1.0998399999999998e-11,871496.9999999999
1.13527e-11,857831.0
1.1718599999999999e-11,844374.0
1.2096199999999998e-11,831134.9999999999
1.24861e-11,818099.9999999999
1.2888399999999999e-11,805275.9999999999
1.3303799999999998e-11,792650.0
1.37325e-11,780227.0
1.41751e-11,767997.0
1.4631799999999997e-11,755963.0
1.51034e-11,744116.0
1.5590099999999998e-11,732460.0
1.6092599999999998e-11,720984.0
1.66111e-11,709693.0
1.71465e-11,698577.0
1.7699e-11,687640.0
1.8269399999999998e-11,676873.0
1.88581e-11,666279.0
1.94659e-11,655849.0
2.00931e-11,645588.0
2.0740699999999998e-11,635486.0
2.1408999999999998e-11,625546.0
2.2099099999999997e-11,615761.0
2.28111e-11,606134.0
2.3546399999999998e-11,596656.0
2.4305099999999997e-11,587331.0
2.50884e-11,578151.0
2.5896799999999997e-11,569118.0
2.67315e-11,560227.0
2.75928e-11,551478.0
2.8482199999999998e-11,542866.0
2.93999e-11,534393.0
3.0347499999999995e-11,526052.0
3.13253e-11,517845.0
3.2335e-11,509766.00000000006
3.33769e-11,501818.0
3.44526e-11,493993.00000000006
3.55627e-11,486294.99999999994
3.67089e-11,478716.99999999994
3.7891799999999997e-11,471261.0
3.9113e-11,463922.0
4.0373400000000003e-11,456701.0
4.1674599999999996e-11,449593.00000000006
4.3017399999999996e-11,442598.99999999994
4.440389999999999e-11,435716.00000000006
4.58347e-11,428943.00000000006
4.7311899999999994e-11,422276.0
4.883639999999999e-11,415717.0
5.0410399999999995e-11,409260.99999999994
5.20348e-11,402909.0
5.37119e-11,396657.0
5.54426e-11,390506.0
5.7229499999999995e-11,384452.0
5.907359999999999e-11,378495.0
6.09775e-11,372632.0
6.29424e-11,366864.0
6.497099999999999e-11,361186.0
6.70645e-11,355601.0
6.9226e-11,350103.0
7.145659999999999e-11,344695.0
7.37596e-11,339371.0
7.61364e-11,334134.0
7.85902e-11,328980.0
8.11227e-11,323909.0
8.37372e-11,318918.0
8.643549999999999e-11,314008.0
8.922119999999998e-11,309176.0
9.209619999999999e-11,304422.0
9.506439999999999e-11,299743.0
9.81277e-11,295140.0
1.01291e-10,290610.0
1.04554e-10,286154.0
1.07924e-10,281768.0
1.11402e-10,277454.0
1.1499200000000001e-10,273208.0
1.1869700000000001e-10,269032.0
1.22523e-10,264921.0
1.26471e-10,260878.0
1.30547e-10,256897.99999999997
1.34754e-10,252984.0
1.3909700000000002e-10,249132.0
1.43579e-10,245343.0
1.48207e-10,241613.0
1.52982e-10,237946.0
1.57913e-10,234336.0
1.6300100000000001e-10,230785.00000000003
1.68254e-10,227291.0
1.73676e-10,223854.0
1.79274e-10,220471.0
1.8505000000000002e-10,217145.0
1.91014e-10,213871.0
1.97169e-10,210651.0
2.03524e-10,207482.0
2.1008200000000003e-10,204365.0
2.16853e-10,201298.00000000003
2.2384e-10,198281.0
2.31055e-10,195313.0
2.385e-10,192393.0
2.46187e-10,189519.0
2.5412e-10,186694.0
2.6231e-10,183913.0
2.70762e-10,181178.0
2.7948900000000003e-10,178486.0
2.88494e-10,175839.0
2.9779300000000004e-10,173234.0
3.07388e-10,170672.0
3.1729500000000004e-10,168151.0
3.27519e-10,165672.0
3.38075e-10,163232.0
3.4896900000000003e-10,160832.0
3.6021600000000004e-10,158471.0
3.7182300000000004e-10,156148.0
3.83807e-10,153863.0
3.96174e-10,151615.0
4.08943e-10,149403.0
4.2212e-10,147228.0
4.3572499999999996e-10,145088.0
4.5071899999999996e-10,142843.0
4.662289999999999e-10,140637.0
4.82272e-10,138469.0
4.98867e-10,136338.0
5.16034e-10,134245.0
5.33791e-10,132188.0
5.521600000000001e-10,130166.0
5.7116e-10,128179.0
5.90815e-10,126226.0
6.11145e-10,124306.99999999999
6.32175e-10,122421.0
6.53929e-10,120568.00000000001
6.76432e-10,118747.0
6.99708e-10,116957.0
7.237860000000001e-10,115198.0
7.486919999999999e-10,113469.0
7.74456e-10,111769.99999999999
8.011060000000001e-10,110100.0
8.28673e-10,108459.0
8.57188e-10,106846.0
8.86685e-10,105261.0
9.171970000000001e-10,103702.99999999999
9.48759e-10,102172.0
9.81407e-10,100667.0
1.01518e-9,99188.3
1.0501100000000002e-9,97734.7
1.08625e-9,96306.1
1.12363e-9,94902.0
1.1622900000000001e-9,93521.90000000001
1.2022900000000002e-9,92165.5
1.24366e-9,90832.4
1.28646e-9,89522.09999999999
1.33072e-9,88234.20000000001
1.3765200000000001e-9,86968.4
1.42388e-9,85724.2
1.47288e-9,84501.3
1.52356e-9,83299.29999999999
1.57599e-9,82117.90000000001
1.6302200000000002e-9,80956.6
1.6863200000000002e-9,79815.2
1.74435e-9,78693.2
1.80437e-9,77590.5
1.86647e-9,76506.5
1.93069e-9,75441.1
1.99713e-9,74393.8
2.0658500000000003e-9,73364.4
2.14146e-9,72289.9
2.21984e-9,71234.8
2.30109e-9,70198.90000000001
2.3853100000000003e-9,69181.5
2.4726100000000002e-9,68182.8
2.56312e-9,67201.9
2.65692e-9,66238.90000000001
2.75418e-9,65293.200000000004
2.85497e-9,64364.600000000006
2.9594800000000002e-9,63452.799999999996
3.0677900000000002e-9,62557.5
3.18008e-9,61678.2
3.2964600000000004e-9,60814.899999999994
3.41713e-9,59967.1
3.5421900000000006e-9,59134.700000000004
3.6718400000000004e-9,58317.2
3.80623e-9,57514.5
3.94555e-9,56726.200000000004
4.08995e-9,55952.200000000004
4.23965e-9,55192.1
4.39482e-9,54445.7
4.55568e-9,53712.7
4.72241e-9,52993.0
4.89527e-9,52286.1
5.07442e-9,51592.1
5.26016e-9,50910.399999999994
5.452680000000001e-9,50241.2
5.66421e-9,49545.6
5.8839600000000004e-9,48863.200000000004
6.112230000000001e-9,48193.9
6.349350000000001e-9,47537.3
6.595670000000001e-9,46893.1
6.85155e-9,46261.200000000004
7.11736e-9,45641.299999999996
7.39348e-9,45033.200000000004
7.680310000000001e-9,44436.600000000006
7.97826e-9,43851.3
8.28778e-9,43277.200000000004
8.60931e-9,42713.9
8.9433e-9,42161.4
9.290260000000001e-9,41619.299999999996
9.65068e-9,41087.5
1.0025100000000001e-8,40565.9
1.0414000000000001e-8,40054.100000000006
1.0818000000000001e-8,39552.1
1.12615e-8,39032.5
1.17231e-8,38523.299999999996
1.22037e-8,38024.3
1.2704e-8,37535.3
1.3224800000000002e-8,37056.0
1.37669e-8,36586.3
1.43313e-8,36126.0
1.4918800000000002e-8,35674.8
1.55304e-8,35232.700000000004
1.6167000000000002e-8,34799.3
1.6829799999999998e-8,34374.6
1.75197e-8,33958.4
1.8237900000000002e-8,33550.5
1.89855e-8,33150.7
1.98056e-8,32738.5
2.0661200000000003e-8,32335.0
2.15537e-8,31939.899999999998
2.2484700000000003e-8,31553.2
2.3456000000000002e-8,31174.5
2.4469300000000002e-8,30803.8
2.52522e-8,30532.7
2.5299999999999998e-8,30516.600000000002
2.6392899999999998e-8,30159.600000000002
2.7533e-8,29810.1
2.8722400000000002e-8,29467.9
3.00266e-8,29116.300000000003
3.13899e-8,28772.5
3.2815200000000004e-8,28436.2
3.43052e-8,28107.4
3.58629e-8,27785.7
3.74912e-8,27471.0
3.9193600000000005e-8,27163.2
4.0973100000000004e-8,26862.1
4.28336e-8,26567.6
4.4873300000000004e-8,26265.9
4.70101e-8,25971.1
4.92486e-8,25683.1
5.1593799999999994e-8,25401.699999999997
5.40506e-8,25126.7
5.66244e-8,24857.999999999996
5.93208e-8,24595.4
6.22769e-8,24327.3
6.53807e-8,24065.6
6.863889999999999e-8,23810.2
7.20597e-8,23560.8
7.56507e-8,23317.199999999997
7.942100000000001e-8,23079.399999999998
8.35556e-8,22837.2
8.790530000000001e-8,22601.0
9.24815e-8,22370.600000000002
9.7296e-8,22145.800000000003
1.0236099999999999e-7,21926.600000000002
1.0769e-7,21712.699999999997
1.13535e-7,21495.5
1.19699e-7,21283.699999999997
1.26197e-7,21077.4
1.3304800000000001e-7,20876.3
1.40567e-7,20672.600000000002
1.48511e-7,20474.100000000002
1.56905e-7,20280.7
1.6577299999999998e-7,20092.3
1.75142e-7,19908.7
1.85431e-7,19723.1
1.9632599999999998e-7,19542.4
2.0786099999999998e-7,19366.5
2.2007400000000002e-7,19195.3
2.3349700000000002e-7,19022.5
2.47739e-7,18854.3
2.6284999999999995e-7,18690.5
2.7947199999999995e-7,18525.4
2.97146e-7,18364.8
3.15937e-7,18208.5
3.36628e-7,18051.1
3.5867499999999995e-7,17898.1
3.82165e-7,17749.1
4.08056e-7,17599.3
4.3569899999999994e-7,17453.5
4.6521699999999995e-7,17311.6
4.97785e-7,17169.0
5.32633e-7,17030.0
5.71126e-7,16890.3
6.12404e-7,16754.100000000002
6.58053e-7,16617.3
7.071049999999999e-7,16483.8
7.59814e-7,16353.4
8.199109999999999e-7,16218.6
8.847619999999999e-7,16086.6
9.54743e-7,15957.300000000001
1.02797e-6,15834.2
1.13389e-6,15674.2
1.29527e-6,15461.7
1.54321e-6,15188.8
1.9581999999999997e-6,14823.599999999999
2.59146e-6,14393.9
3.45352e-6,13937.699999999999
4.63481e-6,13439.5
6.22016e-6,12892.4
8.11715e-6,12345.4
9.94572e-6,11906.6
1.1203200000000001e-5,11680.2
1.19325e-5,11614.4
1.2048700000000002e-5,11612.199999999999
1.2565900000000003e-5,11650.9
1.2923000000000001e-5,11750.300000000001
1.3197700000000002e-5,11898.1
1.33839e-5,12053.199999999999
1.3572700000000001e-5,12279.800000000001
1.3716e-5,12517.400000000001
1.3860600000000002e-5,12838.6
1.39584e-5,13118.6
1.4056200000000003e-5,13466.1
1.4155300000000002e-5,13908.6
1.4229700000000002e-5,14317.5
1.43048e-5,14815.8
1.4380200000000002e-5,15427.699999999999
1.44305e-5,15913.900000000001
1.4481100000000001e-5,16481.8
1.45321e-5,17149.5
1.4583100000000001e-5,17935.0
1.46213e-5,18618.1
1.4659500000000003e-5,19398.1
1.4698300000000001e-5,20307.1
1.4737100000000002e-5,21358.899999999998
1.47759e-5,22584.300000000003
1.4801700000000001e-5,23516.4
1.4827600000000002e-5,24557.2
1.4853400000000002e-5,25723.699999999997
1.48772e-5,26927.4
1.4899e-5,28153.399999999998
1.4920800000000001e-5,29517.699999999997
1.49426e-5,31041.6
1.49643e-5,32750.7
1.49861e-5,34676.1
1.5007900000000002e-5,36855.4
1.5024200000000003e-5,38684.4
1.5040500000000003e-5,40706.2
1.5058600000000002e-5,43198.2
1.50766e-5,46006.0
1.5094600000000001e-5,49186.2
1.51067e-5,51546.8
1.5118700000000001e-5,54128.299999999996
1.51307e-5,56959.600000000006
1.5142700000000002e-5,60074.50000000001
1.5154800000000001e-5,63513.299999999996
1.5166800000000002e-5,67323.7
1.51788e-5,71562.90000000001
1.51908e-5,76300.2
1.52029e-5,81620.00000000001
1.52119e-5,86053.9
1.52209e-5,90926.1
1.5229900000000001e-5,96299.2
1.52371e-5,101008.00000000001
1.5245500000000002e-5,107024.99999999999
1.5254000000000002e-5,113686.0
1.52624e-5,121086.99999999999
1.52708e-5,129343.99999999999
1.52792e-5,138594.0
1.52855e-5,146278.0
1.52918e-5,154690.0
1.5298200000000002e-5,163917.0
1.5303100000000003e-5,171854.0
1.5308900000000002e-5,181819.0
1.53147e-5,192716.0
1.53205e-5,204646.99999999997
1.5326200000000002e-5,217723.99999999997
1.5332e-5,232071.0
1.53378e-5,247819.0
1.53436e-5,265113.0
1.5348200000000003e-5,280407.0
1.5353700000000002e-5,299560.0
1.5359100000000003e-5,320456.0
1.5364500000000002e-5,343239.0
1.5369900000000003e-5,368054.0
1.53753e-5,395046.0
1.5380100000000002e-5,420986.0
1.53849e-5,448859.00000000006
1.53897e-5,478762.00000000006
1.53945e-5,510782.0
1.53993e-5,544999.0
1.54042e-5,581480.0
1.54114e-5,640562.0
1.5418600000000002e-5,704970.0
1.54258e-5,774715.0
1.5433e-5,849679.0000000001
1.54402e-5,929611.0
1.5449900000000003e-5,1.0431699999999999e6
1.5461900000000002e-5,1.19419e6
1.54907e-5,1.5716e6
1.55004e-5,1.69129e6
1.5510000000000002e-5,1.80197e6
1.5519600000000003e-5,1.89997e6
1.5526800000000002e-5,1.96306e6
1.55355e-5,2.02496e6
1.5544100000000003e-5,2.07003e6
1.55513e-5,2.0937100000000002e6
1.5559200000000002e-5,2.10452e6
1.55604e-5,2.10476e6
1.5567200000000002e-5,2.09916e6
1.55744e-5,2.0803600000000002e6
1.55821e-5,2.04622e6
1.55903e-5,1.99498e6
1.55985e-5,1.92976e6
1.5605700000000002e-5,1.86203e6
1.56129e-5,1.78621e6
1.56225e-5,1.6751e6
1.5637000000000003e-5,1.49441e6
1.5661e-5,1.18447e6
1.5673e-5,1.03719e6
1.56827e-5,926817.9999999999
1.5689900000000004e-5,849274.9999999999
1.56971e-5,776634.0
1.57043e-5,709104.0
1.57115e-5,646761.0
1.5718700000000002e-5,589568.0
1.57259e-5,537396.0
1.5730800000000002e-5,505306.00000000006
1.5735600000000002e-5,475283.00000000006
1.5740400000000003e-5,447244.0
1.57452e-5,421099.0
1.575e-5,396754.0
1.57566e-5,366039.0
1.57629e-5,339489.0
1.57692e-5,315420.0
1.57755e-5,293615.0
1.5781900000000002e-5,273870.0
1.5788000000000002e-5,256394.0
1.57939e-5,241263.0
1.5799700000000004e-5,227450.00000000003
1.58056e-5,214828.00000000003
1.5811500000000003e-5,203281.0
1.5817300000000002e-5,192705.0
1.5825200000000002e-5,179949.0
1.5833e-5,168545.0
1.58408e-5,158319.0
1.58486e-5,149119.0
1.58567e-5,140509.0
1.58648e-5,132739.0
1.5873000000000002e-5,125699.99999999999
1.58811e-5,119302.0
1.5891900000000003e-5,111634.00000000001
1.5902700000000003e-5,104812.0
1.5913500000000003e-5,98712.3
1.5924400000000003e-5,93230.6
1.5935200000000003e-5,88282.5
1.5947200000000002e-5,83325.4
1.59592e-5,78860.90000000001
1.59713e-5,74823.1
1.59833e-5,71157.2
1.59953e-5,67817.1
1.60133e-5,63334.4
1.60314e-5,59390.9
1.6049400000000003e-5,55900.7
1.60675e-5,52795.0
1.60855e-5,50017.6
1.61035e-5,47522.5
1.61216e-5,45271.5
1.61396e-5,43233.0
1.6157600000000003e-5,41380.299999999996
1.61757e-5,39691.0
1.6197900000000003e-5,37804.4
1.62202e-5,36107.200000000004
1.62424e-5,34574.4
1.62758e-5,32538.100000000002
1.63092e-5,30767.1
1.63425e-5,29216.1
1.63825e-5,27598.4
1.64258e-5,26089.699999999997
1.6469e-5,24787.1
1.65123e-5,23653.8
1.65555e-5,22660.999999999996
1.65844e-5,22065.600000000002
1.6640900000000002e-5,21028.699999999997
1.66975e-5,20136.8
1.6754000000000003e-5,19363.399999999998
1.68106e-5,18687.899999999998
1.6869900000000003e-5,18067.2
1.69588e-5,17271.399999999998
1.70478e-5,16604.600000000002
1.7138e-5,16032.4
1.7228200000000002e-5,15543.499999999998
1.7349300000000003e-5,14990.5
1.7471200000000003e-5,14527.000000000002
1.7594e-5,14133.6
1.77795e-5,13645.300000000001
1.79677e-5,13247.599999999999
1.81576e-5,12918.400000000001
1.84137e-5,12557.400000000001
1.8673500000000003e-5,12262.699999999999
1.90696e-5,11908.0
1.9475100000000003e-5,11625.099999999999
2.0028500000000003e-5,11322.7
2.0741900000000002e-5,11021.9
2.16322e-5,10730.0
2.2879000000000002e-5,10408.800000000001
2.4539100000000004e-5,10067.3
2.6879300000000005e-5,9672.97
3.0067100000000002e-5,9220.57
3.43465e-5,8692.61
4.0921000000000003e-5,7967.0199999999995
4.97882e-5,7015.85
5.3774900000000006e-5,6549.17
5.68744e-5,6143.39
5.9315700000000005e-5,5781.7699999999995
6.143150000000001e-5,5425.55
6.31771e-5,5093.69
6.497230000000001e-5,4714.04
6.68185e-5,4306.6
6.75239e-5,4169.65
6.79985e-5,4097.76
6.834690000000001e-5,4063.36
6.868000000000001e-5,4052.72
6.89222e-5,4064.1800000000003
6.916450000000001e-5,4097.5599999999995
6.93462e-5,4141.099999999999
6.95278e-5,4204.679999999999
6.970250000000001e-5,4288.97
6.9863e-5,4390.92
7.00235e-5,4522.14
7.0184e-5,4689.650000000001
7.029100000000001e-5,4825.5
7.0398e-5,4984.15
7.0505e-5,5169.23
7.060080000000001e-5,5360.85
7.06966e-5,5580.69
7.079240000000001e-5,5833.05
7.08883e-5,6123.15
7.09841e-5,6457.2300000000005
7.10616e-5,6764.88
7.113010000000001e-5,7067.92
7.11985e-5,7404.33
7.12669e-5,7778.32
7.13399e-5,8224.119999999999
7.14175e-5,8758.34
7.148250000000001e-5,9261.09
7.15407e-5,9759.18
7.16137e-5,10457.6
7.16821e-5,11197.2
7.175060000000001e-5,12031.9
7.180760000000001e-5,12810.699999999999
7.18589e-5,13585.400000000001
7.191020000000001e-5,14438.9
7.19559e-5,15271.699999999999
7.20015e-5,16182.7
7.20471e-5,17181.1
7.209270000000001e-5,18277.600000000002
7.213840000000001e-5,19484.3
7.2184e-5,20815.399999999998
7.22296e-5,22287.4
7.22753e-5,23919.5
7.232090000000001e-5,25734.2
7.23551e-5,27230.9
7.238930000000001e-5,28858.3
7.24235e-5,30631.0
7.245770000000001e-5,32566.199999999997
7.249200000000001e-5,34683.299999999996
7.25262e-5,37005.0
7.25604e-5,39557.2
7.25946e-5,42370.4
7.262880000000001e-5,45480.200000000004
7.26626e-5,48880.100000000006
7.26961e-5,52630.299999999996
7.272970000000001e-5,56807.99999999999
7.275200000000001e-5,59862.9
7.27744e-5,63159.799999999996
7.279670000000001e-5,66724.9
7.28191e-5,70587.8
7.28478e-5,76047.3
7.28766e-5,82141.0
7.28958e-5,86605.6
7.29149e-5,91433.40000000001
7.29341e-5,96665.4
7.29532e-5,102349.0
7.29724e-5,108539.99999999999
7.29906e-5,114965.99999999999
7.30089e-5,121974.99999999999
7.302710000000001e-5,129644.0
7.30454e-5,138062.0
7.306370000000001e-5,147338.0
7.308190000000001e-5,157599.0
7.310010000000001e-5,168999.0
7.31138e-5,178407.0
7.312570000000001e-5,187236.0
7.31403e-5,199070.0
7.31549e-5,212114.0
7.316950000000001e-5,226542.99999999997
7.31841e-5,242566.00000000003
7.319870000000001e-5,260426.0
7.320960000000001e-5,275195.0
7.322060000000001e-5,291295.0
7.32316e-5,308879.0
7.32416e-5,326450.0
7.325440000000001e-5,351063.0
7.32639e-5,371365.0
7.327350000000001e-5,393425.0
7.32831e-5,417415.0
7.329270000000001e-5,443527.99999999994
7.33023e-5,471968.00000000006
7.331190000000001e-5,502958.0
7.33214e-5,536737.0
7.3331e-5,573561.0
7.3342e-5,619721.0
7.33511e-5,661806.0
7.336020000000002e-5,707459.0
7.33693e-5,756951.0
7.337850000000001e-5,810566.0
7.338760000000001e-5,868591.0
7.339670000000001e-5,931319.0
7.340580000000001e-5,999047.0
7.341420000000001e-5,1.06603e6
7.34257e-5,1.16544e6
7.343720000000001e-5,1.27424e6
7.344870000000001e-5,1.39294e6
7.34602e-5,1.52203e6
7.347170000000001e-5,1.66189e6
7.34819e-5,1.79551e6
7.349220000000001e-5,1.93804e6
7.35024e-5,2.08954e6
7.351630000000001e-5,2.30944e6
7.353080000000001e-5,2.55831e6
7.35454e-5,2.82415e6
7.356370000000001e-5,3.17811e6
7.358560000000001e-5,3.62921e6
7.362940000000001e-5,4.5781e6
7.36586e-5,5.20154e6
7.368050000000001e-5,5.63716e6
7.369510000000001e-5,5.90285e6
7.37097e-5,6.14296e6
7.372430000000001e-5,6.35287e6
7.373890000000001e-5,6.52841e6
7.3755e-5,6.67756e6
7.377100000000001e-5,6.77712e6
7.378360000000001e-5,6.81893e6
7.3793e-5,6.82873e6
7.380610000000001e-5,6.8122e6
7.38207e-5,6.75248e6
7.383530000000001e-5,6.65059e6
7.384990000000001e-5,6.50881e6
7.38645e-5,6.3302e6
7.387910000000001e-5,6.11853e6
7.389370000000001e-5,5.87811e6
7.39156e-5,5.47393e6
7.39375e-5,5.03241e6
7.399590000000001e-5,3.79655e6
7.401780000000001e-5,3.35144e6
7.403240000000001e-5,3.06907e6
7.4047e-5,2.80079e6
7.406160000000001e-5,2.54823e6
7.40747e-5,2.33527e6
7.408780000000001e-5,2.13639e6
7.41003e-5,1.96165e6
7.411120000000001e-5,1.818e6
7.41221e-5,1.68406e6
7.413310000000001e-5,1.5596e6
7.414410000000001e-5,1.44431e6
7.4155e-5,1.33782e6
7.41646e-5,1.25153e6
7.41742e-5,1.17137e6
7.418370000000001e-5,1.09701e6
7.41933e-5,1.02813e6
7.42029e-5,964419.0
7.421250000000001e-5,905544.0000000001
7.42221e-5,851188.0
7.42316e-5,801038.0
7.424120000000001e-5,754791.0
7.42508e-5,712157.0
7.42613e-5,669279.0
7.427360000000001e-5,623584.0
7.42859e-5,582407.0
7.42983e-5,545269.0
7.431060000000001e-5,511735.0
7.43229e-5,481409.0
7.43352e-5,453934.0
7.43475e-5,428993.99999999994
7.43599e-5,406303.00000000006
7.43722e-5,385611.0
7.438860000000001e-5,360747.0
7.44023e-5,342107.0
7.441600000000001e-5,325116.0
7.44342e-5,304692.0
7.44525e-5,286463.0
7.44707e-5,270105.0
7.448900000000001e-5,255351.99999999997
7.45072e-5,241984.99999999997
7.45255e-5,229820.0
7.45474e-5,216595.0
7.457290000000001e-5,202791.0
7.459850000000001e-5,190473.0
7.462400000000001e-5,179419.0
7.46496e-5,169450.0
7.46751e-5,160418.0
7.470070000000001e-5,152202.0
7.47262e-5,144700.0
7.47572e-5,136429.0
7.479370000000001e-5,127716.00000000001
7.483030000000001e-5,119944.0
7.48668e-5,112974.0
7.49032e-5,106695.99999999999
7.49398e-5,101016.0
7.497620000000001e-5,95857.50000000001
7.501280000000001e-5,91155.8
7.50538e-5,86344.6
7.509940000000001e-5,81516.5
7.51451e-5,77161.2
7.519070000000001e-5,73216.5
7.52363e-5,69630.2
7.528190000000001e-5,66358.4
7.535040000000002e-5,61960.7
7.54188e-5,58084.4
7.548730000000001e-5,54647.2
7.555570000000001e-5,51582.7
7.56241e-5,48836.700000000004
7.569260000000001e-5,46364.799999999996
7.576100000000001e-5,44130.0
7.585230000000001e-5,41465.899999999994
7.594350000000001e-5,39108.0
7.603480000000001e-5,37008.700000000004
7.6126e-5,35129.8
7.62172e-5,33440.2
7.630850000000001e-5,31914.1
7.639980000000001e-5,30529.899999999998
7.653660000000002e-5,28680.9
7.667350000000001e-5,27061.4
7.68104e-5,25632.7
7.69473e-5,24364.0
7.70841e-5,23230.5
7.722100000000001e-5,22212.2
7.73989e-5,21034.199999999997
7.757690000000001e-5,19995.0
7.77548e-5,19072.6
7.793270000000001e-5,18247.4
7.817e-5,17272.9
7.83991e-5,16446.9
7.862820000000001e-5,15715.9
7.885740000000001e-5,15067.699999999999
7.90865e-5,14494.0
7.929240000000001e-5,14038.699999999999
7.949830000000001e-5,13641.300000000001
7.970410000000002e-5,13309.4
7.991e-5,13060.099999999999
8.0053e-5,12953.8
8.019590000000001e-5,12926.1
8.028460000000002e-5,12963.199999999999
