E(MeV),xs(mb)
1.0e-11,672887.0
1.03223e-11,662302.0
1.06549e-11,651888.0
1.0998399999999998e-11,641634.0
1.13527e-11,631545.0
1.1718599999999999e-11,621611.0
1.2096199999999998e-11,611838.0
1.24861e-11,602214.0
1.2888399999999999e-11,592746.0
1.3303799999999998e-11,583423.0
1.37325e-11,574250.0
1.41751e-11,565219.0
1.4631799999999997e-11,556332.0
1.51034e-11,547583.0
1.5590099999999998e-11,538974.0
1.6092599999999998e-11,530498.0
1.66111e-11,522158.00000000006
1.71465e-11,513947.0
1.7699e-11,505868.0
1.8269399999999998e-11,497912.99999999994
1.88581e-11,490086.0
1.94659e-11,482380.00000000006
2.00931e-11,474798.0
2.0740699999999998e-11,467333.0
2.1408999999999998e-11,459987.0
2.2099099999999997e-11,452755.0
2.28111e-11,445639.0
2.3546399999999998e-11,438633.0
2.4305099999999997e-11,431740.0
2.50884e-11,424952.00000000006
2.5896799999999997e-11,418274.0
2.67315e-11,411699.00000000006
2.75928e-11,405230.0
2.8482199999999998e-11,398860.0
2.93999e-11,392593.0
3.0347499999999995e-11,386423.0
3.13253e-11,380351.0
3.2335e-11,374374.0
3.33769e-11,368492.0
3.44526e-11,362702.0
3.55627e-11,357004.0
3.67089e-11,351394.0
3.7891799999999997e-11,345874.0
3.9113e-11,340440.0
4.0373400000000003e-11,335093.0
4.1674599999999996e-11,329829.0
4.3017399999999996e-11,324649.0
4.440389999999999e-11,319550.0
4.58347e-11,314532.0
4.7311899999999994e-11,309592.0
4.883639999999999e-11,304730.0
5.0410399999999995e-11,299945.0
5.20348e-11,295236.0
5.37119e-11,290600.0
5.54426e-11,286038.0
5.7229499999999995e-11,281548.0
5.907359999999999e-11,277129.0
6.09775e-11,272778.0
6.29424e-11,268498.0
6.497099999999999e-11,264284.0
6.70645e-11,260137.00000000003
6.9226e-11,256055.0
7.145659999999999e-11,252037.99999999997
7.37596e-11,248083.0
7.61364e-11,244192.0
7.85902e-11,240361.0
8.11227e-11,236592.0
8.37372e-11,232880.99999999997
8.643549999999999e-11,229230.0
8.922119999999998e-11,225635.0
9.209619999999999e-11,222098.0
9.506439999999999e-11,218617.00000000003
9.81277e-11,215190.0
1.01291e-10,211817.0
1.04554e-10,208499.0
1.07924e-10,205231.0
1.11402e-10,202016.99999999997
1.1499200000000001e-10,198852.0
1.1869700000000001e-10,195738.0
1.22523e-10,192672.0
1.26471e-10,189656.0
1.30547e-10,186686.0
1.34754e-10,183765.0
1.3909700000000002e-10,180888.0
1.43579e-10,178058.0
1.48207e-10,175272.0
1.52982e-10,172531.0
1.57913e-10,169832.0
1.6300100000000001e-10,167177.0
1.68254e-10,164563.0
1.73676e-10,161991.0
1.79274e-10,159459.0
1.8505000000000002e-10,156968.0
1.91014e-10,154516.0
1.97169e-10,152103.0
2.03524e-10,149727.0
2.1008200000000003e-10,147390.0
2.16853e-10,145090.0
2.2384e-10,142826.0
2.31055e-10,140598.0
2.385e-10,138405.0
2.46187e-10,136247.0
2.5412e-10,134123.0
2.6231e-10,132033.0
2.70762e-10,129976.0
2.7948900000000003e-10,127950.99999999999
2.88494e-10,125959.0
2.9779300000000004e-10,123998.99999999999
3.07388e-10,122069.0
3.1729500000000004e-10,120170.0
3.27519e-10,118302.0
3.38075e-10,116462.0
3.4896900000000003e-10,114653.0
3.6021600000000004e-10,112871.00000000001
3.7182300000000004e-10,111118.99999999999
3.83807e-10,109393.0
3.96174e-10,107695.99999999999
4.08943e-10,106024.99999999999
4.2212e-10,104380.99999999999
4.3572499999999996e-10,102763.0
4.4976500000000005e-10,101171.00000000001
4.6426100000000007e-10,99604.0
4.79221e-10,98062.2
4.94666e-10,96544.6
5.10605e-10,95051.5
5.270620000000001e-10,93581.8
5.440450000000001e-10,92135.8
5.6158e-10,90712.49999999999
5.796750000000001e-10,89312.2
5.98358e-10,87933.90000000001
6.176389999999999e-10,86577.8
6.37545e-10,85243.09999999999
6.58089e-10,83929.9
6.79298e-10,82637.3
7.01188e-10,81365.59999999999
7.237860000000001e-10,80113.90000000001
7.47109e-10,78882.4
7.71188e-10,77670.3
7.960380000000001e-10,76477.8
8.21693e-10,75304.0
8.48171e-10,74149.1
8.75507e-10,73012.5
9.037190000000002e-10,71894.2
9.32845e-10,70793.5
9.62904e-10,69710.59999999999
9.93937e-10,68644.7
1.0259700000000001e-9,67596.0
1.05903e-9,66563.9
1.09316e-9,65548.40000000001
1.12839e-9,64548.9
1.16475e-9,63565.50000000001
1.2022900000000002e-9,62597.7
1.2410300000000002e-9,61645.399999999994
1.28103e-9,60708.200000000004
1.3223100000000002e-9,59786.0
1.36492e-9,58878.399999999994
1.4089000000000002e-9,57985.5
1.4543100000000001e-9,57106.6
1.5011699999999999e-9,56241.899999999994
1.5495600000000002e-9,55390.8
1.5994900000000002e-9,54553.399999999994
1.6510400000000001e-9,53729.2
1.7042400000000001e-9,52918.3
1.75917e-9,52120.2
1.81585e-9,51334.9
1.87438e-9,50561.99999999999
1.9347700000000003e-9,49801.6
1.99713e-9,49053.1
2.06148e-9,48316.7
2.1279200000000002e-9,47591.799999999996
2.19649e-9,46878.700000000004
2.26728e-9,46176.700000000004
2.3403400000000002e-9,45486.1
2.4157700000000002e-9,44806.299999999996
2.49362e-9,44137.5
2.5739800000000002e-9,43479.1
2.65692e-9,42831.4
2.7425500000000002e-9,42193.899999999994
2.8309300000000003e-9,41566.6
2.92217e-9,40949.1
3.01633e-9,40341.6
3.11354e-9,39743.6
3.21387e-9,39155.3
3.3174500000000004e-9,38576.2
3.42435e-9,38006.4
3.53471e-9,37445.5
3.6486100000000003e-9,36893.6
3.7662000000000005e-9,36350.5
3.88757e-9,35816.0
4.01286e-9,35289.9
4.14217e-9,34772.3
4.2756600000000005e-9,34262.8
4.41344e-9,33761.4
4.56531e-9,33235.4
4.72241e-9,32718.2
4.88491e-9,32209.8
5.05301e-9,31710.0
5.226890000000001e-9,31218.7
5.40675e-9,30735.600000000002
5.592810000000001e-9,30260.699999999997
5.78526e-9,29793.9
5.984340000000001e-9,29334.899999999998
6.19027e-9,28883.7
6.40328e-9,28440.1
6.623630000000001e-9,28003.999999999996
6.85155e-9,27575.3
7.08732e-9,27153.800000000003
7.33121e-9,26739.4
7.58348e-9,26332.0
7.84444e-9,25931.5
8.11437e-9,25537.7
8.3936e-9,25150.7
8.682430000000001e-9,24770.1
8.981210000000002e-9,24395.899999999998
9.290260000000001e-9,24028.100000000002
9.60995e-9,23666.5
9.94064e-9,23311.0
1.02827e-8,22961.399999999998
1.06365e-8,22617.8
1.1002600000000001e-8,22280.000000000004
1.13812e-8,21947.899999999998
1.1772800000000001e-8,21621.3
1.21779e-8,21300.3
1.2597e-8,20984.699999999997
1.30305e-8,20674.399999999998
1.34789e-8,20369.3
1.39427e-8,20069.4
1.44225e-8,19774.5
1.4918800000000002e-8,19484.600000000002
1.54321e-8,19199.600000000002
1.59632e-8,18919.399999999998
1.65125e-8,18643.8
1.70807e-8,18373.0
1.76685e-8,18106.7
1.82765e-8,17844.899999999998
1.89054e-8,17587.5
1.95559e-8,17334.4
2.02289e-8,17085.600000000002
2.0924999999999997e-8,16841.0
2.1645e-8,16600.5
2.23899e-8,16364.099999999999
2.31603e-8,16131.599999999999
2.39573e-8,15903.099999999999
2.47817e-8,15678.4
2.52522e-8,15555.1
2.5299999999999998e-8,15542.800000000001
2.61706e-8,15324.1
2.7071200000000002e-8,15109.2
2.80027e-8,14897.9
2.8966300000000002e-8,14690.099999999999
2.99631e-8,14485.8
3.1059800000000004e-8,14272.6
3.2196600000000005e-8,14063.1
3.33751e-8,13857.4
3.45965e-8,13655.4
3.58629e-8,13456.9
3.71754e-8,13262.1
3.85361e-8,13070.699999999999
3.99465e-8,12882.7
4.1408699999999994e-8,12698.1
4.29242e-8,12516.7
4.4495300000000005e-8,12338.6
4.61238e-8,12163.699999999999
4.78121e-8,11991.9
4.9561900000000005e-8,11823.2
5.1376e-8,11657.4
5.325630000000001e-8,11494.7
5.52057e-8,11334.800000000001
5.7226100000000004e-8,11177.8
5.93208e-8,11023.6
6.149180000000001e-8,10872.2
6.37426e-8,10723.5
6.60755e-8,10577.4
6.8494e-8,10434.000000000002
7.10008e-8,10293.1
7.35997e-8,10154.7
7.629330000000001e-8,10018.800000000001
7.90859e-8,9885.35
8.19803e-8,9754.26
8.498100000000001e-8,9625.48
8.82779e-8,9491.630000000001
9.170260000000002e-8,9360.31
9.52602e-8,9231.460000000001
9.89558e-8,9105.050000000001
1.0279499999999999e-7,8981.019999999999
1.06783e-7,8859.34
1.10925e-7,8739.96
1.1522899999999999e-7,8622.83
1.19699e-7,8507.92
1.24343e-7,8395.189999999999
1.29167e-7,8284.599999999999
1.34178e-7,8176.1
1.3938299999999997e-7,8069.660000000001
1.4479e-7,7965.24
1.50408e-7,7862.8
1.5624299999999998e-7,7762.28
1.62304e-7,7663.64
1.68601e-7,7566.849999999999
1.75142e-7,7471.87
1.8232099999999998e-7,7373.57
1.8979499999999999e-7,7277.2300000000005
1.9757499999999997e-7,7182.8099999999995
2.05675e-7,7090.27
2.14106e-7,6999.58
2.2288399999999997e-7,6910.68
2.3201999999999998e-7,6823.57
2.4153199999999997e-7,6738.1900000000005
2.51433e-7,6654.5199999999995
2.61741e-7,6572.51
2.7247e-7,6492.15
2.8363999999999996e-7,6413.400000000001
2.95267e-7,6336.25
3.0802200000000003e-7,6256.69
3.21327e-7,6178.78
3.35208e-7,6102.47
3.49688e-7,6027.75
3.64794e-7,5954.6
3.80552e-7,5883.0
3.96991e-7,5812.9
4.1414e-7,5744.259999999999
4.3202899999999996e-7,5677.06
4.5069199999999997e-7,5611.27
4.7016099999999994e-7,5546.88
4.915099999999999e-7,5480.71
5.138259999999999e-7,5416.0
5.371579999999999e-7,5352.7
5.615459999999999e-7,5290.83
5.870449999999999e-7,5230.36
6.136989999999999e-7,5171.21
6.415659999999999e-7,5113.31
6.70695e-7,5056.67
7.0115e-7,5001.29
7.34537e-7,4944.6
7.69515e-7,4889.21
8.061579999999999e-7,4835.09
8.44546e-7,4782.21
8.847619999999999e-7,4730.57
9.268929999999999e-7,4680.12
9.71031e-7,4630.84
1.01367e-6,4586.37
1.0721e-6,4529.84
1.1418299999999998e-6,4468.05
1.2333199999999998e-6,4395.11
1.3604e-6,4306.45
1.52174e-6,4210.099999999999
1.7262299999999999e-6,4108.28
2.02795e-6,3987.07
2.39922e-6,3870.6200000000003
2.85847e-6,3759.39
3.4294899999999997e-6,3654.09
4.11458e-6,3558.03
5.00617e-6,3464.1000000000004
6.13363e-6,3376.6099999999997
7.56801e-6,3295.73
9.40371e-6,3221.0800000000004
1.17665e-5,3153.0499999999997
1.4930700000000001e-5,3090.15
1.92131e-5,3033.15
2.4897000000000002e-5,2984.17
3.2948300000000004e-5,2942.02
4.45303e-5,2909.0
6.14603e-5,2889.3
7.39759e-5,2885.89
0.000103541,2898.83
0.000143915,2942.2799999999997
0.000191788,3017.95
0.00024336300000000002,3121.1600000000003
0.00029806,3253.1400000000003
0.00035719500000000004,3422.88
0.00040774600000000006,3592.9700000000003
0.00044857100000000004,3746.76
0.000487907,3910.91
0.000526533,4088.8
0.0005647380000000001,4282.62
0.000604232,4503.82
0.000643536,4747.02
0.0006806280000000001,4999.46
0.000719858,5294.450000000001
0.00076135,5641.63
0.0007990450000000001,5990.45
0.000839181,6403.450000000001
0.000878999,6860.0
0.000916729,7338.69
0.000952235,7839.49
0.000985613,8361.800000000001
0.00101892,8934.89
0.00105148,9550.509999999998
0.0010862600000000001,10283.7
0.0011143700000000002,10934.8
0.0011388499999999998,11553.199999999999
0.0011705700000000001,12425.2
0.00119546,13182.400000000001
0.00122081,14020.300000000001
0.00124599,14920.800000000001
0.0012698100000000001,15858.5
0.00129363,16871.9
0.00131745,17986.100000000002
0.00134126,19194.4
0.00136508,20522.7
0.0013889,21981.0
0.00141272,23585.1
0.00143654,25353.500000000004
0.00146035,27307.800000000003
0.00148417,29472.9
0.00150799,31878.000000000004
0.00153181,34556.8
0.00154769,36514.3
0.00156357,38624.5
0.0015794399999999999,40902.399999999994
0.0015953200000000001,43364.799999999996
0.0016112,46030.6
0.0016270800000000001,48920.8
0.00164296,52059.0
0.0016588400000000002,55471.8
0.00167472,59188.9
0.0016906000000000002,63244.0
0.0017064699999999999,67674.7
0.00172235,72523.7
0.00173823,77838.59999999999
0.0017541100000000001,83673.3
0.00176999,90088.1
0.0017858700000000002,97150.5
0.00180175,104936.0
0.0018176300000000002,113528.0
0.0018295300000000002,120570.0
0.00184144,128131.0
0.0018533500000000001,136314.0
0.0018652599999999999,145100.0
0.00187717,154608.0
0.0018890800000000002,164810.0
0.00190099,175832.0
0.0019129000000000001,187638.0
0.0019248099999999999,200353.0
0.00193672,213918.0
0.0019525900000000001,233463.99999999997
0.00196847,254633.00000000003
0.00198435,277343.0
0.0020081699999999997,313825.0
0.00205184,383468.0
0.0020697000000000003,409976.0
0.00208161,425891.0
0.0020935199999999998,439839.99999999994
0.00210543,451363.0
0.00211734,460062.0
0.00212925,465656.0
0.00213897,467748.0
0.00214314,467976.0
0.0021550500000000004,466252.0
0.00216696,461327.99999999994
0.00217887,453572.00000000006
0.0021907800000000002,443072.99999999994
0.00220268,430455.0
0.00221856,410928.0
0.0022344400000000003,389372.0
0.00228605,315581.0
0.00230193,293973.0
0.0023178,273496.0
0.0023336800000000003,254303.0
0.00234956,236459.00000000003
0.00236544,219966.99999999997
0.00238132,204789.00000000003
0.0023972000000000004,190861.0
0.0024130799999999997,178103.0
0.00242896,166428.0
0.0024448300000000003,155750.0
0.00246071,145981.0
0.00247659,137039.0
0.00249247,128848.0
0.0025083500000000003,121337.99999999999
0.00252423,114442.0
0.00254011,108104.0
0.00255599,102269.00000000001
0.00257186,96889.7
0.0025877400000000003,91923.4
0.00260362,87331.2
0.0026195,83078.59999999999
0.00263538,79134.5
0.0026512600000000003,75471.0
0.00267508,70467.0
0.0026988900000000002,65926.7
0.00272271,61858.8
0.00274653,58146.899999999994
0.00277035,54799.4
0.00279417,51728.6
0.00281798,48942.7
0.0028418000000000002,46374.6
0.00287356,43284.200000000004
0.0029053200000000003,40515.2
0.00293112,38481.200000000004
0.00296089,36316.299999999996
0.00299265,34228.299999999996
0.00302441,32331.2
0.00305021,30913.6
0.00308842,29003.800000000003
0.0031256300000000003,27311.2
0.00316285,25789.399999999998
0.0032050299999999998,24220.100000000002
0.00325465,22569.7
0.00329435,21381.399999999998
0.0033439700000000004,20038.0
0.00339359,18827.5
0.0034432100000000004,17737.0
0.00348941,16827.6
0.00350515,16580.2
0.00351015,16551.4
0.00351371,16608.5
0.0035153500000000004,16705.7
0.00351631,16819.1
0.00351727,17025.5
0.0035179399999999998,17276.3
0.00351839,17526.0
0.00351884,17871.7
0.00351921,18255.0
0.00351951,18636.9
0.0035198,19096.9
0.0035201,19642.8
0.00352043,20365.4
0.0035208,21302.3
0.00352117,22365.8
0.00352228,25889.3
0.00352265,26947.5
0.00352293,27618.2
0.00352321,28146.9
0.00352351,28532.7
0.00352374,28672.7
0.00352388,28692.600000000002
0.00352412,28613.4
0.0035244200000000003,28313.100000000002
0.00352471,27806.8
0.0035249100000000005,27369.0
0.00352528,26384.1
0.00352584,24647.899999999998
0.00352658,22268.4
0.00352695,21192.600000000002
0.00352726,20396.6
0.0035276200000000004,19575.7
0.00352799,18891.899999999998
0.0035283000000000003,18411.8
0.0035286700000000002,17939.7
0.0035290499999999997,17571.5
0.00352943,17287.0
0.00352985,17046.1
0.00353054,16770.4
0.00353147,16544.1
0.00353267,16369.0
0.00353388,16256.900000000001
0.0035373,16070.5
0.00354147,15936.8
0.0035576699999999998,15599.400000000001
0.0036053500000000002,14807.8
0.00366831,13875.1
0.00374053,12920.0
0.00380441,12156.499999999998
0.00387571,11384.8
0.00395755,10586.199999999999
0.00403479,9903.15
0.00411259,9277.91
0.00418976,8710.44
0.00427233,8147.29
0.0043556,7621.22
0.00444821,7082.75
0.00454381,6561.4400000000005
0.004661500000000001,5966.38
0.0047846500000000005,5383.08
0.00494208,4676.59
0.005365770000000001,2856.62
0.00538225,2797.0299999999997
0.0053893100000000005,2781.97
0.00539166,2781.02
0.00539542,2788.75
0.0053977700000000005,2804.67
0.00539998,2835.78
0.0054014300000000005,2872.91
0.00540249,2915.37
0.0054032,2955.7400000000002
0.0054039000000000005,3011.33
0.0054044900000000005,3075.05
0.0054049300000000005,3137.75
0.00540537,3217.86
0.00540582,3320.91
0.00540611,3405.67
0.00540648,3532.72
0.0054068,3670.8599999999997
0.0054071300000000004,3836.02
0.00540745,4032.0600000000004
0.00540778,4262.53
0.0054080000000000005,4436.81
0.00540825,4655.66
0.005408489999999999,4897.32
0.00540874,5161.79
0.00540911,5592.23
0.0054094600000000005,6049.53
0.00540993,6706.23
0.00541064,7725.5599999999995
0.0054110600000000005,8304.31
0.00541144,8762.44
0.00541171,9047.029999999999
0.00541197,9267.62
0.00541222,9437.77
0.00541244,9539.310000000001
0.005412709999999999,9605.52
0.00541284,9614.29
0.005413070000000001,9590.16
0.005413299999999999,9520.32
0.00541355,9386.279999999999
0.00541381,9198.26
0.00541407,8952.61
0.00541435,8641.310000000001
0.0054147299999999995,8164.210000000001
0.005415199999999999,7503.95
0.0054160300000000005,6313.5599999999995
0.00541638,5833.35
0.00541674,5384.9
0.00541698,5105.1900000000005
0.00541722,4846.599999999999
0.005417460000000001,4609.73
0.00541768,4410.83
0.00541799,4167.33
0.00541829,3955.81
0.00541859,3773.7799999999997
0.0054189,3618.27
0.0054192,3486.2000000000003
0.005419500000000001,3377.9300000000003
0.00541979,3285.99
0.00542023,3173.45
0.005420670000000001,3085.1000000000004
0.00542097,3036.74
0.005421560000000001,2959.17
0.0054222,2895.3199999999997
0.005422850000000001,2846.7
0.00542382,2792.3
0.00542527,2736.0
0.00542639,2704.3599999999997
0.00542863,2658.67
0.0054322400000000005,2610.47
0.00543584,2576.64
0.00544257,2529.31
0.0054577,2446.82
0.00552877,2111.0699999999997
0.0056400899999999995,1582.73
0.00575142,1048.41
0.00578416,896.1990000000001
0.00581035,779.218
0.00583,695.835
0.0058430999999999995,642.896
0.005856200000000001,592.664
0.00586766,551.029
0.00587748,517.899
0.0058873,487.23400000000004
0.0058971200000000005,459.396
0.00590695,434.79200000000003
0.005914310000000001,418.739
0.00592168,404.994
0.00592905,393.716
0.00593642,385.29900000000004
0.00594378,380.053
0.00594869,378.46000000000004
0.0059511500000000005,378.275
0.00595606,379.20099999999996
0.0059609699999999995,381.957
0.005965880000000001,386.673
0.0059708,393.492
0.00597571,402.565
0.00598062,414.056
0.00598553,428.14300000000003
0.0059904400000000005,445.02
0.00599535,464.93399999999997
0.00600026,488.03200000000004
0.006005180000000001,514.5730000000001
0.00601009,544.832
0.00601471,576.977
0.00601934,612.924
0.00602396,652.921
0.00602859,697.204
0.0060329699999999995,743.707
0.00603735,794.621
0.00604173,850.2710000000001
0.0060461,910.96
0.00605069,980.5770000000001
0.006055270000000001,1056.76
0.006059859999999999,1139.97
0.006064440000000001,1230.8300000000002
0.0060690299999999996,1329.8799999999999
0.00607361,1437.68
0.006078190000000001,1554.92
0.0060827799999999994,1682.49
0.006087360000000001,1821.26
0.0060919400000000005,1972.0800000000002
0.006096529999999999,2135.98
0.006101110000000001,2314.04
0.0061056999999999995,2507.5
0.006110280000000001,2717.67
0.006114860000000001,2946.02
0.006119449999999999,3194.1600000000003
0.006124030000000001,3463.88
0.0061286199999999996,3757.13
0.006133200000000001,4076.0899999999997
0.00613779,4423.15
0.006142369999999999,4800.9800000000005
0.006146950000000001,5212.5199999999995
0.00615154,5661.05
0.006156119999999999,6150.21
0.006160700000000001,6684.0599999999995
0.0061652899999999995,7267.11
0.006169870000000001,7904.410000000001
0.00617446,8601.6
0.006179039999999999,9364.97
0.00618363,10201.6
0.00618706,10881.8
0.0061905,11611.400000000001
0.006193939999999999,12394.199999999999
0.00619738,13234.699999999999
0.00620082,14137.699999999999
0.0062042500000000006,15108.3
0.00620769,16152.2
0.00621113,17275.6
0.00621457,18485.100000000002
0.0062180099999999995,19788.1
0.006221440000000001,21192.5
0.0062248799999999995,22706.9
0.00622832,24340.7
0.00623176,26103.9
0.0062352,28007.300000000003
0.00623863,30062.600000000002
0.00624207,32282.199999999997
0.00624551,34679.3
0.00624895,37267.9
0.00625239,40062.2
0.0062558200000000005,43077.4
0.00625926,46328.6
0.0062626999999999995,49830.8
0.00626614,53598.4
0.00626958,57645.0
0.006273010000000001,61982.0
0.006276449999999999,66618.2
0.00627989,71558.8
0.00628447,78622.4
0.00628939,86790.8
0.0062943,95466.3
0.006301660000000001,109230.0
0.00631329,131292.0
0.006317870000000001,139467.0
0.00632246,146895.0
0.00632704,153315.0
0.0063304799999999994,157323.0
0.00633392,160552.0
0.00633735,162922.0
0.006340790000000001,164422.0
0.00634472,165048.0
0.0063484,164637.0
0.0063520899999999995,163346.0
0.0063545400000000005,162014.0
0.006359460000000001,158349.0
0.00636437,153637.0
0.00636993,147410.0
0.00638107,133462.0
0.00639449,116433.00000000001
0.00640235,107160.00000000001
0.00641021,98656.29999999999
0.00641806,90973.79999999999
0.006423300000000001,86305.20000000001
0.00642854,81983.59999999999
0.00643378,77991.2
0.006441639999999999,72575.59999999999
0.0064494999999999995,67783.5
0.0064573600000000005,63547.200000000004
0.00646521,59801.799999999996
0.00647307,56491.3
0.00648093,53564.600000000006
0.00648879,50979.200000000004
0.00649665,48697.299999999996
0.00650451,46687.9
0.00651236,44924.200000000004
