E(MeV),xs(mb)
1.0e-11,146235.0
1.03223e-11,143948.0
1.06549e-11,141698.0
1.0998399999999998e-11,139482.0
1.13527e-11,137303.0
1.1718599999999999e-11,135157.0
1.2096199999999998e-11,133046.0
1.24861e-11,130968.0
1.2888399999999999e-11,128923.00000000001
1.3303799999999998e-11,126911.0
1.37325e-11,124930.00000000001
1.41751e-11,122981.0
1.4631799999999997e-11,121063.00000000001
1.51034e-11,119175.00000000001
1.5590099999999998e-11,117317.0
1.6092599999999998e-11,115489.0
1.66111e-11,113690.0
1.71465e-11,111918.99999999999
1.7699e-11,110176.0
1.8269399999999998e-11,108461.00000000001
1.88581e-11,106773.99999999999
1.94659e-11,105112.99999999999
2.00931e-11,103479.00000000001
2.0740699999999998e-11,101871.0
2.1408999999999998e-11,100288.0
2.2099099999999997e-11,98730.49999999999
2.28111e-11,97198.1
2.3546399999999998e-11,95689.8
2.4305099999999997e-11,94205.79999999999
2.50884e-11,92745.20000000001
2.5896799999999997e-11,91308.29999999999
2.67315e-11,89894.0
2.75928e-11,88502.6
2.8482199999999998e-11,87133.1
2.93999e-11,85785.90000000001
3.0347499999999995e-11,84459.9
3.13253e-11,83155.40000000001
3.2335e-11,81871.6
3.33769e-11,80608.6
3.44526e-11,79365.6
3.55627e-11,78142.8
3.67089e-11,76939.3
3.7891799999999997e-11,75755.5
3.9113e-11,74590.5
4.0373400000000003e-11,73444.4
4.1674599999999996e-11,72316.59999999999
4.3017399999999996e-11,71207.2
4.440389999999999e-11,70115.4
4.58347e-11,69041.4
4.7311899999999994e-11,67984.6
4.883639999999999e-11,66945.1
5.0410399999999995e-11,65922.2
5.20348e-11,64916.0
5.37119e-11,63926.0
5.54426e-11,62952.1
5.7229499999999995e-11,61993.9
5.907359999999999e-11,61051.5
6.09775e-11,60124.1
6.29424e-11,59212.100000000006
6.497099999999999e-11,58314.700000000004
6.70645e-11,57432.2
6.9226e-11,56563.8
7.145659999999999e-11,55709.799999999996
7.37596e-11,54869.700000000004
7.61364e-11,54043.4
7.85902e-11,53230.5
8.11227e-11,52431.1
8.37372e-11,51644.8
8.643549999999999e-11,50871.399999999994
8.922119999999998e-11,50110.700000000004
9.209619999999999e-11,49362.700000000004
9.506439999999999e-11,48626.899999999994
9.81277e-11,47903.399999999994
1.01291e-10,47191.6
1.04554e-10,46492.00000000001
1.07924e-10,45803.700000000004
1.11402e-10,45127.100000000006
1.1499200000000001e-10,44461.5
1.1869700000000001e-10,43807.200000000004
1.22523e-10,43163.7
1.26471e-10,42531.100000000006
1.30547e-10,41909.0
1.34754e-10,41297.4
1.3909700000000002e-10,40696.0
1.43579e-10,40104.9
1.48207e-10,39523.6
1.52982e-10,38952.200000000004
1.57913e-10,38390.4
1.6300100000000001e-10,37838.3
1.68254e-10,37295.4
1.73676e-10,36761.9
1.79274e-10,36237.3
1.85443e-10,35687.700000000004
1.91824e-10,35148.2
1.9842500000000002e-10,34618.5
2.0525300000000001e-10,34098.6
2.1231600000000001e-10,33588.200000000004
2.19622e-10,33087.200000000004
2.2717900000000003e-10,32595.399999999998
2.34997e-10,32112.8
2.43083e-10,31639.1
2.51448e-10,31174.1
2.60101e-10,30717.9
2.69051e-10,30270.100000000002
2.7830900000000004e-10,29830.800000000003
2.87886e-10,29399.600000000002
2.9779300000000004e-10,28976.600000000002
3.0804e-10,28561.6
3.1864e-10,28154.3
3.29605e-10,27754.8
3.4094699999999997e-10,27362.899999999998
3.52679e-10,26978.399999999998
3.64815e-10,26601.3
3.7736900000000005e-10,26231.300000000003
3.9035500000000004e-10,25868.4
4.03787e-10,25512.5
4.17682e-10,25163.4
4.32055e-10,24821.100000000002
4.4692299999999997e-10,24485.399999999998
4.6230200000000006e-10,24156.1
4.7821e-10,23833.3
4.94666e-10,23516.7
5.11688e-10,23206.3
5.304140000000001e-10,22883.100000000002
5.498300000000001e-10,22566.600000000002
5.69952e-10,22256.7
5.90815e-10,21953.2
6.12437e-10,21656.1
6.34854e-10,21365.1
6.58089e-10,21080.3
6.82177e-10,20801.4
7.07143e-10,20528.4
7.330280000000001e-10,20261.100000000002
7.598550000000001e-10,19999.4
7.87668e-10,19743.2
8.16495e-10,19492.5
8.46382e-10,19247.0
8.773580000000001e-10,19006.7
9.113950000000001e-10,18757.7
9.46752e-10,18514.4
9.83482e-10,18276.399999999998
1.0216400000000002e-9,18043.8
1.06127e-9,17816.399999999998
1.1024400000000002e-9,17594.0
1.1452100000000002e-9,17376.6
1.18964e-9,17164.1
1.23579e-9,16956.3
1.28373e-9,16753.100000000002
1.3335400000000001e-9,16554.4
1.3882100000000001e-9,16349.499999999998
1.44511e-9,16149.4
1.50436e-9,15954.0
1.5660200000000001e-9,15763.1
1.6302200000000002e-9,15576.7
1.69705e-9,15394.699999999999
1.7666200000000003e-9,15216.8
1.83904e-9,15043.1
1.91848e-9,14864.599999999999
2.00135e-9,14690.4
2.0878100000000005e-9,14520.5
2.17799e-9,14354.7
2.27208e-9,14192.9
2.37023e-9,14034.9
2.4726100000000002e-9,13880.8
2.58489e-9,13723.0
2.70225e-9,13569.1
2.82496e-9,13419.099999999999
2.9532200000000003e-9,13272.900000000001
3.0873200000000005e-9,13130.2
3.22749e-9,12991.2
3.3740500000000004e-9,12855.6
3.53471e-9,12717.099999999999
3.70303e-9,12582.3
3.87936e-9,12450.9
4.064090000000001e-9,12322.900000000001
4.2576200000000004e-9,12198.199999999999
4.46979e-9,12071.300000000001
4.692560000000001e-9,11947.8
4.92641e-9,11827.5
5.17193e-9,11710.5
5.42967e-9,11596.599999999999
5.71233e-9,11480.900000000001
6.0097e-9,11368.5
6.32255e-9,11259.1
6.6517e-9,11152.7
7.0128000000000004e-9,11045.1
7.39348e-9,10940.5
7.794850000000001e-9,10838.8
8.217980000000001e-9,10740.099999999999
8.682430000000001e-9,10640.400000000001
9.17314e-9,10543.6
9.69157e-9,10449.6
1.0261e-8,10355.0
1.08639e-8,10263.199999999999
1.15022e-8,10174.2
1.21779e-8,10087.900000000001
1.29207e-8,10001.1
1.3708800000000001e-8,9917.1
1.4544999999999999e-8,9835.68
1.5464800000000002e-8,9754.009999999998
1.64428e-8,9674.97
1.75197e-8,9595.869999999999
1.8667e-8,9519.39
1.98896e-8,9445.44
2.1237e-8,9371.58
2.26757e-8,9300.25
2.42632e-8,9229.16
2.52522e-8,9188.359999999999
2.5299999999999998e-8,9186.45
2.7071200000000002e-8,9119.34
2.90277e-8,9052.58
3.11255e-8,8988.23
3.34456e-8,8924.33
3.59387e-8,8862.78
3.86995e-8,8801.79
4.1760400000000006e-8,8741.46
4.50634e-8,8683.47
4.87306e-8,8626.210000000001
5.26963e-8,8571.24
5.7105300000000004e-8,8517.060000000001
6.201410000000001e-8,8463.74
6.74875e-8,8411.35
7.3444e-8,8361.19
8.009560000000001e-8,8311.99
8.753439999999999e-8,8263.820000000002
9.58662e-8,8216.720000000001
1.05214e-7,8170.740000000001
1.15717e-7,8125.94
1.27538e-7,8082.330000000001
1.4086399999999998e-7,8039.94
1.55912e-7,7998.79
1.72934e-7,7958.92
1.92219e-7,7920.33
2.1455999999999998e-7,7882.32
2.40004e-7,7845.71
2.69605e-7,7809.8
3.0349699999999995e-7,7775.32
3.4309699999999997e-7,7741.679999999999
3.8868399999999996e-7,7709.49
4.42197e-7,7678.219999999999
5.052069999999999e-7,7647.929999999999
5.79644e-7,7618.629999999999
6.6928e-7,7589.97
7.76051e-7,7562.41
9.055809999999999e-7,7535.599999999999
1.0571799999999999e-6,7510.51
1.3990599999999998e-6,7469.12
2.3658399999999997e-6,7402.42
4.70019e-6,7327.91
1.0742100000000002e-5,7236.44
3.2948300000000004e-5,7030.3
6.2764e-5,6758.110000000001
7.7988e-5,6578.65
8.908770000000002e-5,6403.150000000001
9.68999e-5,6268.27
9.88389e-5,6255.87
0.000100587,6277.83
0.000101647,6323.349999999999
0.00010236400000000001,6379.030000000001
0.00010308100000000001,6466.26
0.000103627,6563.67
0.000104172,6700.160000000001
0.00010453600000000002,6821.04
0.000104904,6976.49
0.00010527299999999999,7175.379999999999
0.00010555000000000002,7361.45
0.000105826,7588.129999999999
0.00010601100000000001,7767.31
0.00010622700000000001,8012.56
0.000106443,8303.839999999998
0.000106659,8651.960000000001
0.00010682100000000001,8958.73
0.00010699200000000001,9333.529999999999
0.000107167,9784.35
0.00010728400000000001,10129.6
0.000107401,10517.099999999999
0.00010751800000000001,10953.4
0.000107635,11446.7
0.000107751,12006.5
0.000107856,12577.1
0.00010795,13146.0
0.00010804300000000001,13782.300000000001
0.000108137,14496.4
0.00010823000000000001,15301.3
0.000108324,16212.4
0.00010839399999999999,16976.7
0.00010846400000000001,17820.7
0.000108534,18755.8
0.00010861300000000001,19942.4
0.000108669,20873.1
0.00010872500000000001,21891.9
0.000108782,23010.0
0.00010883799999999999,24240.7
0.000108894,25599.4
0.00010894999999999999,27104.6
0.000109006,28778.0
0.000109053,30319.8
0.000109099,32014.5
0.00010914600000000002,33883.1
0.00010919300000000001,35950.700000000004
0.000109239,38247.4
0.000109286,40809.100000000006
0.00010933299999999999,43679.50000000001
0.000109368,46066.799999999996
0.000109398,48321.2
0.000109436,51364.200000000004
0.000109473,54745.7
0.00010951,58519.6
0.00010953800000000001,61646.1
0.000109567,65061.600000000006
0.000109595,68803.5
0.000109623,72914.2
0.00010965100000000001,77442.90000000001
0.000109679,82446.09999999999
0.00010970200000000001,87024.79999999999
0.00010972500000000001,92020.2
0.00010974900000000001,97480.1
0.000109772,103457.0
0.000109795,110009.0
0.000109819,117201.0
0.000109842,125104.0
0.00010986600000000001,133794.0
0.00010988400000000001,141369.0
0.000109903,149548.0
0.00010992200000000001,158379.0
0.00010994,167912.0
0.00010995900000000001,178202.0
0.00010997800000000001,189301.0
0.00010999600000000001,201268.0
0.000110015,214157.99999999997
0.00011003700000000002,230931.0
0.00011006000000000001,249217.99999999997
0.000110082,269119.0
0.00011010500000000002,290726.0
0.000110123,310100.0
0.00011014200000000002,330765.0
0.00011017,364270.0
0.000110198,400871.0
0.00011022600000000001,440625.99999999994
0.00011025400000000002,483532.0
0.000110282,529531.0
0.00011031,578474.0
0.00011034800000000001,647917.0
0.000110394,740294.0
0.000110516,992412.0
0.000110553,1.06689e6
0.000110591,1.13648e6
0.000110628,1.19912e6
0.000110665,1.25288e6
0.000110693,1.28629e6
0.00011072200000000001,1.31309e6
0.00011075,1.33275e6
0.000110778,1.3449e6
0.00011080300000000002,1.34924e6
0.00011083400000000002,1.34594e6
0.000110866,1.33252e6
0.00011089800000000001,1.30929e6
0.00011093100000000001,1.27636e6
0.000110964,1.2336e6
0.000110998,1.18299e6
0.000111032,1.1259e6
0.00011107700000000001,1.0421800000000001e6
0.00011115100000000001,892130.0
0.00011121900000000001,756329.0
0.00011126300000000001,669960.0
0.000111293,615379.0
0.000111323,563680.0
0.00011135100000000001,518078.00000000006
0.000111379,475411.0
0.000111407,435750.0
0.000111435,399110.0
0.000111463,365443.0
0.000111485,341969.0
0.00011150800000000002,317646.0
0.00011153200000000002,295219.0
0.00011155500000000001,274591.0
0.00011157900000000001,255659.0
0.00011160300000000001,238314.0
0.000111626,222446.0
0.00011165000000000002,207947.00000000003
0.00011167,196694.0
0.000111694,184061.0
0.00011171800000000002,172567.0
0.000111743,162108.0
0.000111767,152586.0
0.000111791,143912.0
0.00011181600000000001,135999.0
0.00011184000000000001,128774.00000000001
0.00011185600000000001,124303.99999999999
0.000111889,116113.0
0.00011192100000000001,108809.0
0.00011195299999999999,102451.0
0.000111984,96724.09999999999
0.000112016,91547.8
0.000112048,86853.09999999999
0.000112079,82580.4
0.00011211100000000001,78678.9
0.000112153,73979.7
0.000112195,69776.6
0.00011223700000000002,65998.40000000001
0.00011228100000000002,62406.49999999999
0.00011232800000000001,59003.9
0.00011237500000000001,55936.0
0.000112421,53157.9
0.000112468,50632.200000000004
0.00011251500000000002,48327.5
0.00011258500000000001,45228.6
0.000112632,43370.0
0.000112699,40927.6
0.000112767,38744.6
0.000112835,36783.8
0.000112903,35014.9
0.00011297,33412.700000000004
0.000113038,31956.000000000004
0.00011314,30005.7
0.000113224,28574.199999999997
0.000113324,27047.6
0.000113425,25691.3
0.00011352500000000001,24480.1
0.00011362600000000001,23393.1
0.000113726,22413.4
0.00011387700000000001,21114.7
0.000114036,19930.5
0.000114211,18804.2
0.00011438600000000001,17831.8
0.000114561,16985.600000000002
0.000114736,16243.8
0.000114912,15589.4
0.00011514500000000001,14829.4
0.00011537900000000002,14175.199999999999
0.000115612,13607.499999999998
0.00011584600000000002,13111.1
0.000116153,12548.0
0.000116459,12065.8
0.00011666300000000002,11781.6
0.000117072,11286.400000000001
0.00011748000000000001,10870.599999999999
0.000117895,10512.699999999999
0.00011830900000000001,10205.900000000001
0.00011893100000000002,9820.970000000001
0.00011955800000000001,9502.76
0.00011997800000000001,9320.470000000001
0.00012081900000000001,9013.49
0.00012167100000000001,8762.17
0.000122523,8555.25
0.00012382,8303.089999999998
0.000125128,8103.51
0.000126894,7894.17
0.000128684,7730.05
0.00013141400000000003,7540.91
0.000134208,7396.24
0.000138021,7248.26
0.00014293700000000002,7108.25
0.000150124,6960.93
0.000161017,6802.81
0.00017760800000000002,6629.29
0.00020858500000000004,6381.070000000001
0.000254533,6032.39
0.000274438,5844.820000000001
0.00028742700000000004,5685.469999999999
0.000296655,5536.38
0.000301961,5427.17
0.00030796,5270.49
0.000311997,5135.3
0.00031563100000000003,4984.29
0.000319265,4797.27
0.00032390800000000003,4524.36
0.00032517,4473.46
0.000325801,4464.97
0.000326431,4477.41
0.000326936,4510.88
0.000327315,4556.16
0.00032769300000000005,4625.58
0.000327946,4689.5
0.000328248,4790.5
0.000328475,4888.219999999999
0.000328703,5009.7
0.00032893,5160.72
0.000329157,5348.740000000001
0.000329346,5540.67
0.000329535,5772.35
0.000329662,5953.42
0.000329788,6159.709999999999
0.000329914,6395.32
0.00033004,6665.21
0.000330166,6975.349999999999
0.00033028,7294.95
0.000330393,7659.6
0.000330507,8077.24
0.000330592,8431.050000000001
0.00033067700000000003,8825.07
0.000330762,9265.2
0.000330848,9758.42
0.00033093300000000005,10313.2
0.000331018,10939.7
0.000331075,11403.4
0.000331138,11967.9
0.000331201,12591.2
0.000331264,13281.9
0.000331327,14050.0
0.00033139,14907.999999999998
0.000331453,15871.0
0.00033150000000000003,16673.0
0.00033154800000000003,17553.9
0.000331605,18730.6
0.000331655,19903.8
0.000331706,21217.199999999997
0.000331743,22308.3
0.000331781,23503.0
0.000331819,24815.0
0.000331857,26259.5
0.000331895,27854.100000000002
0.000331933,29619.100000000002
0.00033197,31577.5
0.00033200300000000004,33451.3
0.000332034,35344.0
0.000332064,37410.1
0.000332094,39668.299999999996
0.000332124,42138.5
0.000332155,44842.899999999994
0.00033218500000000003,47805.600000000006
0.000332215,51052.9
0.000332246,54612.7
0.00033227600000000006,58515.7
0.000332306,62794.2
0.000332339,67894.1
0.000332372,73522.6
0.000332405,79729.7
0.00033243700000000004,86567.4
0.00033247,94090.5
0.000332503,102355.0
0.00033253600000000003,111417.00000000001
0.000332569,121336.0
0.00033259500000000004,130013.0
0.00033262200000000003,139315.0
0.000332648,149272.0
0.00033267500000000005,159912.0
0.000332701,171261.0
0.000332728,183343.0
0.000332754,196180.0
0.00033279200000000005,216069.00000000003
0.000332827,235842.00000000003
0.00033286300000000003,257036.0
0.00033289800000000004,279654.0
0.00033293300000000005,303684.0
0.00033296800000000006,329093.0
0.000333007,358288.0
0.000333064,404806.00000000006
0.00033312200000000004,454159.0
0.000333202,526936.0
0.000333364,675336.0
0.000333437,738069.0
0.000333505,791814.0
0.00033355,822734.0
0.000333594,849999.0
0.00033363800000000003,873133.0
0.000333685,892461.0
0.00033373100000000003,906453.0
0.000333781,915208.9999999999
0.000333825,917458.0000000001
0.000333875,913682.0
0.000333919,904921.0
0.000333963,891254.0
0.000334002,875281.0
0.00033405,850648.0
0.00033410300000000004,818662.0
0.000334159,778962.0
0.00033422000000000004,731622.0
0.00033428500000000003,677228.0
0.00033447800000000003,506456.0
0.000334548,447691.0
0.000334594,410440.99999999994
0.00033464100000000005,375064.0
0.00033468100000000003,346338.0
0.000334731,312640.0
0.00033476400000000004,291645.0
0.000334797,271844.0
0.000334831,253233.0
0.00033486400000000004,235804.0
0.000334897,219531.0
0.000334931,204384.0
0.000334965,190016.0
0.000334999,176739.0
0.00033503300000000004,164498.0
0.00033506700000000004,153239.0
0.00033510100000000003,142903.0
0.000335135,133431.0
0.000335169,124764.00000000001
0.000335203,116843.00000000001
0.000335237,109610.00000000001
0.00033527100000000005,103011.00000000001
0.000335307,96780.00000000001
0.000335344,90733.09999999999
0.000335382,85274.2
0.00033542,80343.59999999999
0.000335458,75886.2
0.000335496,71852.0
0.000335534,68195.0
0.00033557100000000006,64874.5
0.000335622,60907.0
0.000335672,57395.4
0.000335714,54794.5
0.000335763,52019.700000000004
0.000335812,49525.8
0.00033586200000000003,47274.700000000004
0.000335927,44595.200000000004
0.000335993,42226.5
0.00033605800000000003,40117.6
0.00033612400000000004,38227.799999999996
0.00033619,36524.4
0.000336273,34589.5
0.000336323,33523.5
0.00033642400000000004,31596.600000000002
0.000336525,29902.000000000004
0.000336626,28400.1
0.000336727,27060.2
0.000336828,25857.800000000003
0.000336929,24773.3
0.00033703,23790.5
0.000337156,22685.1
0.000337282,21697.000000000004
0.000337409,20808.9
0.00033759800000000004,19634.6
0.00033778700000000004,18617.3
0.00033797600000000003,17728.7
0.00033816600000000004,16946.600000000002
0.000338292,16475.7
0.00033854400000000003,15636.000000000002
0.00033879600000000004,14910.6
0.000339049,14278.4
0.000339389,13544.5
0.00033973,12920.6
0.000340071,12384.3
0.00034041100000000004,11918.9
0.000340866,11387.199999999999
0.00034137,10890.7
0.00034187500000000006,10471.699999999999
0.00034238000000000004,10113.8
0.000342884,9804.869999999999
0.00034344000000000003,9510.619999999999
0.000344272,9139.88
0.000345105,8834.55
0.000346014,8557.15
0.000346922,8324.5
0.000348285,8038.53
0.000349647,7808.44
0.000351464,7563.33
0.000353382,7358.75
0.000355401,7185.91
0.00035842900000000006,6982.01
0.00036044800000000003,6872.4400000000005
0.000364485,6696.07
0.000368523,6558.67
0.00037498300000000007,6388.9800000000005
0.000383674,6216.75
0.00039600800000000005,6028.41
0.00042966,5592.679999999999
0.00043901700000000004,5444.09
0.00044603400000000005,5302.4800000000005
0.00045047800000000003,5188.679999999999
0.00045468900000000004,5052.570000000001
0.00045784700000000005,4923.849999999999
0.000461004,4765.23
0.000464513,4570.41
0.00046568300000000005,4530.37
0.000466034,4527.8
0.00046663300000000004,4542.25
0.000467115,4580.969999999999
0.000467437,4627.65
0.00046772900000000006,4690.86
0.00046802200000000007,4781.2
0.00046824100000000005,4872.8
0.00046845999999999997,4991.39
0.00046867200000000006,5139.38
0.00046887000000000003,5315.599999999999
0.00046900100000000003,5459.25
0.000469133,5628.85
0.000469264,5830.009999999999
0.000469396,6069.93
0.00046949500000000006,6280.88
0.000469593,6523.97
0.00046970000000000003,6830.51
0.000469782,7102.7
0.000469864,7413.62
0.00046994600000000006,7770.82
0.00047002800000000005,8183.93
0.00047008900000000003,8537.689999999999
0.00047015000000000007,8936.14
0.000470212,9387.04
0.000470273,9899.800000000001
0.00047031400000000005,10281.6
0.00047037300000000006,10891.3
0.00047041600000000003,11405.6
0.00047046,11976.0
0.00047050400000000006,12610.2
0.000470548,13316.8
0.00047059200000000004,14105.7
0.000470636,14987.900000000001
0.00047068000000000007,15976.0
0.00047072300000000004,17084.2
0.00047076700000000003,18328.100000000002
0.000470808,19627.0
0.000470848,21020.6
0.000470887,22568.100000000002
0.00047092700000000005,24286.2
0.00047096600000000007,26192.4
0.00047100600000000005,28306.100000000002
0.000471045,30647.199999999997
0.000471085,33237.0
0.000471124,36097.6
0.0004711630000000001,39252.1
0.00047120300000000006,42723.5
0.00047123799999999996,46094.9
0.00047127299999999997,49752.0
0.000471308,53711.6
0.000471343,57989.100000000006
0.000471378,62600.100000000006
0.000471413,67558.4
0.000471449,72877.0
0.000471484,78567.0
0.00047152800000000003,86216.1
0.000471571,94472.6
0.000471615,103343.0
0.00047165900000000003,112826.0
0.0004717030000000001,122912.0
0.000471742,132416.0
0.000471791,144956.0
0.000471865,164946.0
0.00047195099999999997,189897.0
0.00047219499999999996,262961.0
0.000472279,286726.0
0.000472354,305993.0
0.00047242400000000004,321885.0
0.00047249400000000006,335191.0
0.0004725430000000001,342745.0
0.00047259200000000003,348716.0
0.00047263900000000007,352847.0
0.000472704,355957.0
0.000472739,356363.0
0.00047278900000000004,355375.0
0.00047284,352507.0
0.000472891,347822.0
0.00047295299999999997,339791.0
