E(MeV),xs(mb)
1.0e-11,248351.0
1.03223e-11,244469.0
1.06549e-11,240651.0
1.0998399999999998e-11,236892.0
1.13527e-11,233194.0
1.1718599999999999e-11,229552.99999999997
1.2096199999999998e-11,225971.0
1.24861e-11,222445.0
1.2888399999999999e-11,218976.00000000003
1.3303799999999998e-11,215560.99999999997
1.37325e-11,212201.0
1.41751e-11,208893.0
1.4631799999999997e-11,205640.0
1.51034e-11,202436.00000000003
1.5590099999999998e-11,199285.0
1.6092599999999998e-11,196183.0
1.66111e-11,193131.0
1.71465e-11,190126.0
1.7699e-11,187171.0
1.8269399999999998e-11,184261.0
1.88581e-11,181399.0
1.94659e-11,178582.0
2.00931e-11,175810.0
2.0740699999999998e-11,173081.0
2.1408999999999998e-11,170397.0
2.2099099999999997e-11,167755.0
2.28111e-11,165156.0
2.3546399999999998e-11,162598.0
2.4305099999999997e-11,160081.0
2.50884e-11,157604.0
2.5896799999999997e-11,155168.0
2.67315e-11,152769.0
2.75928e-11,150410.0
2.8482199999999998e-11,148087.0
2.93999e-11,145803.0
3.0347499999999995e-11,143555.0
3.13253e-11,141343.0
3.2335e-11,139166.0
3.33769e-11,137025.0
3.44526e-11,134918.0
3.55627e-11,132845.0
3.67089e-11,130805.0
3.7891799999999997e-11,128797.99999999999
3.9113e-11,126823.0
4.0373400000000003e-11,124881.0
4.1674599999999996e-11,122969.0
4.3017399999999996e-11,121089.0
4.440389999999999e-11,119239.0
4.58347e-11,117419.0
4.7311899999999994e-11,115628.0
4.883639999999999e-11,113867.0
5.0410399999999995e-11,112134.0
5.20348e-11,110429.0
5.37119e-11,108752.0
5.54426e-11,107102.99999999999
5.7229499999999995e-11,105480.0
5.907359999999999e-11,103882.99999999999
6.09775e-11,102313.00000000001
6.29424e-11,100767.99999999999
6.497099999999999e-11,99248.8
6.70645e-11,97754.4
6.9226e-11,96284.2
7.145659999999999e-11,94838.5
7.37596e-11,93416.3
7.61364e-11,92017.7
7.85902e-11,90642.0
8.11227e-11,89289.1
8.37372e-11,87958.4
8.643549999999999e-11,86649.99999999999
8.922119999999998e-11,85363.0
9.209619999999999e-11,84097.6
9.506439999999999e-11,82853.0
9.81277e-11,81629.29999999999
1.01291e-10,80425.7
1.04554e-10,79242.7
1.07924e-10,78078.90000000001
1.11402e-10,76935.2
1.1499200000000001e-10,75810.1
1.1869700000000001e-10,74704.5
1.22523e-10,73617.0
1.26471e-10,72548.2
1.30547e-10,71497.09999999999
1.34754e-10,70464.3
1.3909700000000002e-10,69448.5
1.43579e-10,68450.4
1.48207e-10,67468.9
1.52982e-10,66504.5
1.57913e-10,65556.2
1.63347e-10,64562.799999999996
1.6896800000000002e-10,63587.6
1.74782e-10,62630.299999999996
1.80796e-10,61690.6
1.87018e-10,60768.2
1.9345300000000001e-10,59862.799999999996
2.0011000000000002e-10,58974.200000000004
2.06996e-10,58102.0
2.14119e-10,57246.2
2.21487e-10,56406.200000000004
2.2910900000000002e-10,55582.0
2.36993e-10,54773.2
2.45148e-10,53979.600000000006
2.53584e-10,53201.0
2.6231e-10,52437.1
2.7133600000000003e-10,51687.6
2.80673e-10,50952.4
2.90331e-10,50231.1
3.0032199999999997e-10,49523.700000000004
3.10657e-10,48829.700000000004
3.21347e-10,48149.100000000006
3.3240500000000005e-10,47481.600000000006
3.43843e-10,46826.9
3.55675e-10,46184.9
3.67914e-10,45555.3
3.8057400000000004e-10,44938.0
3.9367000000000005e-10,44332.700000000004
4.07217e-10,43739.2
4.2123e-10,43157.4
4.3572499999999996e-10,42586.899999999994
4.51671e-10,41993.200000000004
4.68204e-10,41411.8
4.85339e-10,40842.7
5.03105e-10,40285.399999999994
5.215169999999999e-10,39740.0
5.40607e-10,39206.1
5.60392e-10,38683.5
5.809040000000001e-10,38171.9
6.02164e-10,37671.299999999996
6.24206e-10,37181.3
6.470500000000001e-10,36701.8
6.707340000000001e-10,36232.5
6.95282e-10,35773.299999999996
7.207320000000001e-10,35323.9
7.47109e-10,34884.200000000004
7.74456e-10,34453.8
8.04501e-10,34008.3
8.35712e-10,33572.9
8.681330000000001e-10,33147.5
9.01812e-10,32731.7
9.367979999999999e-10,32325.499999999996
9.731410000000001e-10,31928.5
1.0108900000000002e-9,31540.499999999996
1.0501100000000002e-9,31161.500000000004
1.0908500000000002e-9,30791.0
1.1331700000000001e-9,30429.1
1.17962e-9,30055.9
1.2279800000000001e-9,29691.800000000003
1.27832e-9,29336.4
1.33072e-9,28989.5
1.3852700000000001e-9,28650.899999999998
1.44206e-9,28320.4
1.5011699999999999e-9,27997.800000000003
1.5627200000000002e-9,27683.0
1.6302200000000002e-9,27359.6
1.70064e-9,27044.3
1.7741100000000002e-9,26737.000000000004
1.85075e-9,26437.2
1.93069e-9,26145.0
2.01409e-9,25859.899999999998
2.1011e-9,25581.999999999996
2.19649e-9,25297.5
2.29623e-9,25020.3
2.4004900000000003e-9,24750.399999999998
2.50949e-9,24487.3
2.62343e-9,24230.999999999996
2.74835e-9,23969.6
2.8792200000000003e-9,23715.1
3.01633e-9,23467.4
3.15996e-9,23226.300000000003
3.3104300000000005e-9,22991.600000000002
3.4754200000000004e-9,22752.8
3.6486100000000003e-9,22520.699999999997
3.8304600000000004e-9,22294.9
4.021340000000001e-9,22075.300000000003
4.22176e-9,21861.7
4.44154e-9,21645.1
4.67276e-9,21434.5
4.916010000000001e-9,21230.000000000004
5.17193e-9,21031.2
5.452680000000001e-9,20830.1
5.74869e-9,20634.800000000003
6.06075e-9,20445.3
6.389770000000001e-9,20261.300000000003
6.7509e-9,20075.5
7.13244e-9,19895.4
7.535540000000001e-9,19720.7
7.97826e-9,19544.8
8.44703e-9,19374.3
8.9433e-9,19209.1
9.4888e-9,19043.2
1.0067600000000001e-8,18882.600000000002
1.0681600000000001e-8,18727.100000000002
1.1357200000000001e-8,18571.3
1.20754e-8,18420.5
1.2839e-8,18274.7
1.36799e-8,18128.899999999998
1.4575800000000002e-8,17988.0
1.55632e-8,17847.4
1.66176e-8,17711.600000000002
1.77809e-8,17576.4
1.90257e-8,17446.0
2.0400700000000002e-8,17316.4
2.18751e-8,17191.5
2.35057e-8,17067.600000000002
2.52522e-8,16948.6
2.5299999999999998e-8,16945.600000000002
2.72435e-8,16827.5
2.93362e-8,16714.0
3.1656499999999996e-8,16601.8
3.42328e-8,16491.100000000002
3.70185e-8,16384.8
4.01158e-8,16280.1
4.3564299999999995e-8,16177.2
4.7309099999999996e-8,16078.5
5.14847e-8,15981.7
5.61475e-8,15886.7
6.136210000000001e-8,15793.699999999999
6.72027e-8,15702.9
7.37553e-8,15614.2
8.11183e-8,15527.9
8.9405e-8,15443.9
9.874660000000001e-8,15362.199999999999
1.09295e-7,15283.0
1.2122699999999998e-7,15206.2
1.34746e-7,15131.9
1.5009e-7,15060.1
1.67889e-7,14989.6
1.8819699999999997e-7,14921.599999999999
2.11855e-7,14855.1
2.3899099999999997e-7,14791.2
2.70747e-7,14729.000000000002
3.0802200000000003e-7,14668.5
3.51914e-7,14609.9
4.03763e-7,14553.1
4.6521699999999995e-7,14498.2
5.39434e-7,14444.6
6.28142e-7,14392.9
7.360909999999999e-7,14342.6
8.68082e-7,14293.499999999998
1.02797e-6,14246.300000000001
1.36993e-6,14172.0
2.41614e-6,14039.5
5.112359999999999e-6,13867.0
1.2444700000000001e-5,13593.599999999999
3.05056e-5,13090.900000000001
5.8110900000000006e-5,12443.699999999999
9.03446e-5,11791.400000000001
0.000125572,11172.3
0.000165016,10569.699999999999
0.000207935,9999.84
0.000254765,9458.349999999999
0.000307814,8923.24
0.000366527,8405.210000000001
0.00043212400000000004,7894.9400000000005
0.000511234,7344.2699999999995
0.000716643,6029.78
0.0007746570000000001,5623.36
0.0008181200000000001,5280.8
0.0008514400000000001,4983.27
0.00087524,4743.610000000001
0.0008990399999999999,4473.55
0.00091808,4229.009999999999
0.0009323600000000001,4024.5800000000004
0.0009466400000000001,3797.98
0.00096092,3544.46
0.00097044,3357.59
0.00097996,3153.96
0.00098948,2931.1
0.00099781,2718.3
0.0010049500000000001,2520.72
0.00101209,2307.83
0.00101923,2078.33
0.00102458,1894.69
0.00102994,1700.9399999999998
0.0010353,1497.26
0.0010415399999999999,1248.39
0.00105448,714.9490000000001
0.0010571600000000001,608.516
0.00105917,531.99
0.00106084,471.30400000000003
0.00106218,425.356
0.00106352,382.211
0.00106441,355.341
0.00106525,331.76
0.00106609,309.90099999999995
0.00106692,289.955
0.00106776,272.161
0.00106832,261.623
0.0010688800000000001,252.23499999999999
0.0010694300000000001,244.082
0.00106999,237.255
0.00107055,231.85600000000002
0.00107102,228.47
0.0010715,226.264
0.00107196,225.31799999999998
0.0010721099999999998,225.28199999999998
0.00107253,225.90499999999997
0.00107304,228.18800000000002
0.00107353,232.072
0.00107395,236.748
0.00107445,244.138
0.00107483,250.934
0.00107518,258.48900000000003
0.00107553,267.166
0.0010759,277.572
0.00107628,289.345
0.00107663,301.85900000000004
0.0010769800000000002,315.72900000000004
0.00107734,331.02299999999997
0.00107769,347.80600000000004
0.00107806,367.163
0.00107843,388.34
0.0010788,411.433
0.0010791800000000001,436.54
0.00107959,467.32399999999996
0.00108001,500.943
0.00108043,537.562
0.0010808500000000002,577.353
0.00108127,620.505
0.00108171,669.381
0.00108215,723.566
0.0010826,782.338
0.00108304,846.0029999999999
0.00108349,914.876
0.00108395,991.241
0.00108443,1078.0400000000002
0.0010849100000000001,1172.22
0.00108539,1274.3
0.0010858699999999998,1384.8899999999999
0.00108635,1504.6
0.0010868400000000002,1637.28
0.0010873299999999999,1781.0600000000002
0.00108782,1936.81
0.00108831,2105.46
0.0010888,2288.02
0.0010893200000000002,2498.13
0.00108986,2733.5
0.00109039,2990.19
0.00109093,3270.23
0.00109146,3575.81
0.001092,3909.4
0.00109253,4273.75
0.00109307,4671.9400000000005
0.0010936,5107.38
0.00109414,5583.929999999999
0.0010946800000000002,6105.91
0.00109521,6678.219999999999
0.00109575,7306.320000000001
0.00109628,7996.47
0.0010968199999999999,8755.689999999999
0.00109735,9591.95
0.0010978300000000002,10407.2
0.0010982799999999999,11239.6
0.0010987199999999999,12144.699999999999
0.00109917,13130.5
0.00109961,14205.6
0.0011000600000000001,15380.3
0.00110051,16665.399999999998
0.00110095,18073.600000000002
0.0011014,19619.100000000002
0.00110185,21318.199999999997
0.00110229,23189.600000000002
0.00110269,25039.2
0.0011031,27064.1
0.0011034999999999999,29284.9
0.0011039,31725.4
0.0011043000000000001,34413.0
0.0011047000000000001,37378.9
0.0011051,40659.799999999996
0.00110537,43042.6
0.00110564,45598.200000000004
0.0011059099999999999,48342.5
0.00110617,51292.9
0.0011064400000000002,54469.200000000004
0.0011068,59134.399999999994
0.00110714,63994.600000000006
0.00110748,69366.1
0.00110782,75318.6
0.00110805,79648.8
0.0011082700000000002,84300.0
0.0011085000000000001,89439.49999999999
0.00110874,95134.1
0.00110898,101302.0
0.0011092200000000002,107992.0
0.0011094599999999998,115263.0
0.00110969,123177.0
0.00110993,131809.0
0.0011101700000000002,141242.0
0.0011104099999999998,151569.0
0.00111065,162900.0
0.00111088,175358.0
0.0011111200000000002,189086.0
0.0011113599999999998,204247.99999999997
0.00111154,216672.99999999997
0.00111172,230098.0
0.0011119,244627.00000000003
0.00111207,260368.99999999997
0.00111225,277448.0
0.00111243,296002.0
0.0011126100000000002,316185.0
0.00111279,338164.0
0.00111297,362128.0
0.00111314,388279.0
0.00111332,416848.0
0.0011135,448072.0
0.00111368,482215.0
0.0011138600000000002,519552.0
0.00111404,560374.0
0.00111422,604974.0
0.00111439,653644.0
0.00111457,706653.0
0.0011147499999999999,764251.0
0.00111493,826615.9999999999
0.00111511,893864.0
0.00111529,965997.0
0.00111552,1.06951e6
0.0011157600000000001,1.18065e6
0.00111611,1.35212e6
0.0011166400000000001,1.62505e6
0.00111686,1.72852e6
0.0011171,1.83385e6
0.00111727,1.9035e6
0.00111745,1.96308e6
0.0011176299999999999,2.0109599999999998e6
0.00111781,2.04581e6
0.0011179900000000001,2.0665200000000002e6
0.0011181399999999999,2.07313e6
0.00111829,2.0691099999999998e6
0.00111844,2.0554199999999998e6
0.00111863,2.0228199999999998e6
0.00111883,1.97524e6
0.00111903,1.9146e6
0.0011192200000000002,1.84318e6
0.0011195200000000002,1.72118e6
0.0011200000000000001,1.50211e6
0.0011204300000000002,1.30767e6
0.00112071,1.18574e6
0.0011209400000000002,1.09555e6
0.00112119,1.00322e6
0.00112144,918881.0
0.00112169,842442.0
0.0011218600000000001,795698.0
0.00112202,752152.0
0.0011221900000000001,711634.0
0.0011223799999999999,668794.0
0.00112257,629392.0
0.00112276,593148.0
0.00112295,559799.0
0.0011231400000000001,529091.0
0.0011233299999999999,500792.00000000006
0.00112352,474684.0
0.00112371,450570.0
0.00112395,422954.0
0.00112419,397855.0
0.00112443,374994.0
0.00112466,354124.0
0.0011249,335030.0
0.00112514,317522.0
0.00112538,301434.0
0.0011256200000000001,286620.0
0.00112586,272622.0
0.00112623,253618.0
0.00112659,236699.0
0.00112696,221570.0
0.0011273200000000002,207988.99999999997
0.00112757,199691.0
0.00112798,186927.0
0.00112839,175485.0
0.0011288000000000001,165185.0
0.00112921,155881.0
0.00112962,147446.0
0.0011300300000000002,139776.0
0.00113044,132778.0
0.0011308499999999999,126374.00000000001
0.00113139,118802.00000000001
0.00113192,111999.0
0.00113246,105861.99999999999
0.00113299,100306.0
0.00113353,95257.0
0.00113407,90654.5
0.0011346000000000001,86445.5
0.00113514,82585.0
0.00113573,78657.0
0.00113633,75065.9
0.00113722,70227.4
0.00113811,65951.9
0.001139,62151.899999999994
0.0011399,58756.8
0.00114097,55136.0
0.00114204,51934.6
0.0011431100000000001,49089.4
0.00114418,46547.700000000004
0.0011452500000000002,44260.299999999996
0.0011464700000000001,41920.9
0.0011477599999999998,39708.0
0.00114906,37731.4
0.00115035,35956.0
0.0011516500000000002,34353.6
0.0011534,32416.5
0.00115519,30682.6
0.00115697,29148.800000000003
0.00115876,27780.999999999996
0.0011605399999999998,26555.399999999998
0.00116233,25451.899999999998
0.0011650100000000002,23989.8
0.0011676800000000002,22720.2
0.00117036,21608.3
0.0011730400000000002,20627.2
0.00117572,19755.7
0.0011792800000000002,18735.1
0.00118107,18276.600000000002
0.00118523,17320.7
0.0011894,16492.899999999998
0.00119297,15868.9
0.0011983299999999998,15052.9
0.0012036800000000002,14353.6
0.00120904,13747.7
0.00121439,13217.6
0.00122153,12605.4
0.0012286699999999998,12080.0
0.0012358100000000002,11623.5
0.00124295,11222.7
0.00125128,10812.699999999999
0.0012607999999999999,10403.500000000002
0.00127032,10045.5
0.0012845999999999999,9582.539999999999
0.00129888,9186.41
0.00131792,8731.47
0.00134172,8237.81
0.00138397,7423.45
0.0013988400000000002,7104.009999999999
0.0014068700000000002,6908.74
0.0014157,6663.11
0.0014220699999999999,6455.879999999999
0.0014280999999999999,6225.65
0.00143384,5963.07
0.00143766,5754.660000000001
0.00144149,5509.929999999999
0.0014443600000000002,5295.21
0.00144722,5045.78
0.00144914,4855.400000000001
0.00145105,4641.5
0.00145264,4441.78
0.00145424,4218.77
0.00145583,3968.56
0.00145689,3784.35
0.00145796,3584.48
0.0014590200000000001,3367.41
0.00146,3150.1299999999997
0.0014609000000000002,2935.86
0.00146181,2707.71
0.00146294,2405.23
0.0014644900000000001,1974.89
0.00146502,1834.05
0.00146553,1711.0700000000002
0.0014658899999999999,1634.51
0.0014661200000000002,1590.74
0.00146636,1554.62
0.0014666,1528.17
0.00146678,1516.1599999999999
0.00146696,1512.28
0.0014671400000000002,1518.07
0.00146732,1535.37
0.0014674400000000002,1554.38
0.0014675800000000002,1585.2900000000002
0.00146772,1626.97
0.0014678199999999999,1666.28
0.0014679299999999999,1713.3700000000001
0.00146803,1767.73
0.00146813,1827.99
0.0014682200000000001,1897.5800000000002
0.00146833,1986.37
0.00146841,2056.65
0.0014685,2160.01
0.0014686,2271.93
0.0014686900000000001,2398.6299999999997
0.00146878,2541.9100000000003
0.00146887,2703.9300000000003
0.00146896,2877.4
0.00146905,3072.4100000000003
0.0014691300000000001,3266.66
0.0014692099999999999,3482.5499999999997
0.00146929,3723.87
0.00146937,3995.2000000000003
0.00146945,4298.36
0.00146952,4601.860000000001
0.00146959,4918.53
0.0014696499999999999,5267.7300000000005
0.0014697199999999999,5653.51
0.00146979,6080.05
0.00146983,6389.48
0.00146989,6781.93
0.00146994,7207.61
0.00146999,7669.84
0.00147005,8171.989999999999
0.0014701,8718.109999999999
0.0014701500000000001,9312.210000000001
0.00147021,9959.06
0.00147026,10663.6
0.00147031,11431.6
0.00147037,12268.8
0.00147042,13182.0
0.00147047,14177.900000000001
0.0014705299999999998,15264.800000000001
0.00147058,16450.6
0.0014706300000000001,17744.5
0.0014706900000000002,19155.8
0.00147074,20695.5
0.00147079,22374.0
0.00147084,24203.600000000002
0.0014709,26196.199999999997
0.00147095,28365.999999999996
0.001471,30725.8
0.0014710600000000002,33291.1
0.0014711099999999999,36076.4
0.00147116,38785.9
0.00147121,41698.399999999994
0.00147125,44827.0
0.0014713,48183.4
0.00147135,51781.9
0.0014714,55633.9
0.00147144,59753.5
0.00147149,64152.4
0.00147156,70684.5
0.0014716199999999999,77802.4
0.0014716899999999999,85539.40000000001
0.00147176,93924.0
0.00147182,102985.0
0.00147188,111849.0
0.0014719400000000001,120834.0
0.0014720100000000002,133669.0
0.00147209,147497.0
0.0014721500000000002,158520.0
0.0014722200000000002,173304.0
0.0014722900000000002,188968.0
0.0014723599999999998,205487.99999999997
0.00147247,231241.0
0.0014725699999999999,257441.0
0.00147271,294226.0
0.00147295,361631.0
0.00147315,419254.0
0.00147329,456764.0
0.00147342,489123.0
0.00147355,515940.0
0.00147366,537206.0
0.00147375,550919.0
0.0014738400000000001,561921.0
0.0014739199999999999,569401.0
0.00147403,575508.0
0.0014741200000000002,577297.0
0.0014742,576098.0
0.00147431,570839.0
0.00147441,561898.0
0.00147451,549418.0
0.0014746300000000002,530806.0
0.00147475,508408.0
0.00147488,479046.00000000006
0.00147502,446717.00000000006
0.00147528,381882.0
0.00147549,326819.0
0.00147562,294854.0
0.0014757499999999998,266159.0
0.00147586,242234.00000000003
0.00147597,219949.0
0.00147608,199400.0
0.00147615,186686.0
0.00147622,174759.0
0.0014763200000000001,159759.0
0.0014763999999999999,148796.0
0.00147648,138689.0
0.00147656,129402.0
0.00147664,120890.00000000001
0.0014767200000000002,113108.00000000001
0.0014768,106006.0
0.00147688,99536.20000000001
0.00147696,93649.79999999999
0.00147704,88299.40000000001
0.00147712,83437.7
0.0014772000000000001,79021.3
0.0014772799999999999,75008.1
0.00147736,71360.3
0.00147746,67001.2
0.00147757,63149.3
0.00147768,59735.1
0.0014777800000000002,56699.200000000004
0.00147789,53989.1
0.00147799,51560.0
0.00147813,48809.4
0.00147827,46386.700000000004
0.0014784,44237.399999999994
0.00147854,42317.9
0.0014786699999999999,40592.2
0.00147888,38306.3
0.00147908,36317.7
0.0014792700000000002,34634.4
0.00147947,33135.5
0.00147966,31791.399999999998
0.00147996,30015.800000000003
0.00148025,28476.8
0.00148054,27129.6
0.0014809,25700.1
0.0014812900000000001,24355.899999999998
0.0014816800000000002,23191.199999999997
0.00148207,22172.399999999998
0.0014824500000000002,21274.0
0.00148298,20216.9
0.0014835100000000002,19295.2
0.00148404,18494.3
0.00148457,17792.1
0.00148529,16971.3
0.00148597,16304.4
0.00148664,15722.199999999999
0.00148755,15052.2
0.00148845,14479.4
0.0014895099999999999,13903.9
0.00149058,13412.599999999999
0.00149164,12988.4
0.0014932300000000001,12450.300000000001
0.0014948300000000002,12003.5
0.00149642,11626.5
0.00149791,11324.0
0.00149982,10989.9
0.00150269,10577.2
0.00150556,10243.1
0.0015084200000000001,9966.570000000002
0.0015122500000000001,9663.52
0.0015160800000000002,9415.64
0.00152202,9107.26
0.0015284,8848.449999999999
0.0015347800000000001,8640.2
0.0015447599999999998,8382.15
0.0015539,8195.4
0.0015679300000000001,7968.09
0.00158652,7736.07
0.00160851,7523.87
0.00163763,7304.92
0.00167307,7094.69
0.00171655,6888.78
0.00177507,6665.38
0.00185008,6435.43
0.00191407,6276.150000000001
0.0019219999999999999,6266.19
0.00192718,6281.42
0.0019291400000000002,6315.179999999999
0.00193,6355.179999999999
0.0019304300000000001,6397.0599999999995
0.0019307200000000001,6445.63
0.001931,6526.3099999999995
0.00193122,6621.96
0.00193144,6764.36
0.00193159,6902.88
0.0019317400000000001,7083.46
0.0019318900000000001,7316.650000000001
0.0019319900000000002,7507.17
0.00193209,7730.15
0.00193219,7989.55
0.00193231,8359.310000000001
0.00193242,8740.81
0.0019325300000000002,9178.85
0.00193264,9677.69
0.0019327399999999998,10240.6
0.00193285,10848.1
0.0019329400000000002,11470.6
0.0019330400000000002,12148.000000000002
0.00193314,12879.0
0.0019332700000000002,13932.500000000002
0.00193339,14963.2
0.0019335500000000002,16446.4
0.00193405,21318.600000000002
0.0019342200000000002,22866.300000000003
0.00193438,24130.3
0.0019345000000000002,24948.5
0.00193461,25581.100000000002
0.00193475,26144.2
0.00193488,26455.4
0.001935,26549.6
0.0019351000000000001,26480.399999999998
0.00193522,26224.8
