E(MeV),xs(mb)
1.0e-11,8.23992e6
1.03223e-11,8.1112e6
1.06549e-11,7.98457e6
1.0998399999999998e-11,7.8599e6
1.13527e-11,7.73725e6
1.1718599999999999e-11,7.6165e6
1.2096199999999998e-11,7.49772e6
1.24861e-11,7.38077e6
1.2888399999999999e-11,7.26572e6
1.3303799999999998e-11,7.15246e6
1.37325e-11,7.04103e6
1.41751e-11,6.93134e6
1.4631799999999997e-11,6.82343e6
1.51034e-11,6.71719e6
1.5590099999999998e-11,6.61268e6
1.6092599999999998e-11,6.5098e6
1.66111e-11,6.40859e6
1.71465e-11,6.30895e6
1.7699e-11,6.21094e6
1.8269399999999998e-11,6.11445e6
1.88581e-11,6.01953e6
1.94659e-11,5.92609e6
2.00931e-11,5.83418e6
2.0740699999999998e-11,5.7437e6
2.1408999999999998e-11,5.65469e6
2.2099099999999997e-11,5.56707e6
2.28111e-11,5.48088e6
2.3546399999999998e-11,5.39605e6
2.4305099999999997e-11,5.31259e6
2.50884e-11,5.23044e6
2.5896799999999997e-11,5.14963e6
2.67315e-11,5.07009e6
2.75928e-11,4.99185e6
2.8482199999999998e-11,4.91484e6
2.93999e-11,4.83908e6
3.0347499999999995e-11,4.76452e6
3.13253e-11,4.69117e6
3.2335e-11,4.61899e6
3.33769e-11,4.54798e6
3.44526e-11,4.47809e6
3.55627e-11,4.40935e6
3.67089e-11,4.3417e6
3.7891799999999997e-11,4.27515e6
3.9113e-11,4.20965e6
4.0373400000000003e-11,4.1452299999999995e6
4.1674599999999996e-11,4.0818399999999995e6
4.3017399999999996e-11,4.0194799999999995e6
4.440389999999999e-11,3.95811e6
4.58347e-11,3.89775e6
4.7311899999999994e-11,3.83835e6
4.883639999999999e-11,3.77993e6
5.0410399999999995e-11,3.72244e6
5.20348e-11,3.6659e6
5.37119e-11,3.61026e6
5.54426e-11,3.55554e6
5.7229499999999995e-11,3.5017e6
5.907359999999999e-11,3.44874e6
6.09775e-11,3.39663e6
6.29424e-11,3.34538e6
6.497099999999999e-11,3.29496e6
6.70645e-11,3.24537e6
6.9226e-11,3.19658e6
7.145659999999999e-11,3.1486e6
7.37596e-11,3.1014e6
7.61364e-11,3.05497e6
7.85902e-11,3.0093e6
8.11227e-11,2.96439e6
8.37372e-11,2.9202e6
8.643549999999999e-11,2.87675e6
8.922119999999998e-11,2.83401e6
9.209619999999999e-11,2.79198e6
9.506439999999999e-11,2.75063e6
9.81277e-11,2.70998e6
1.01291e-10,2.66998e6
1.04554e-10,2.63066e6
1.07924e-10,2.59198e6
1.11402e-10,2.55395e6
1.1499200000000001e-10,2.51654e6
1.1869700000000001e-10,2.47976e6
1.22523e-10,2.44358e6
1.26471e-10,2.40802e6
1.30547e-10,2.37303e6
1.34754e-10,2.33864e6
1.3909700000000002e-10,2.30481e6
1.43579e-10,2.27156e6
1.48207e-10,2.23885e6
1.53306e-10,2.20457e6
1.58582e-10,2.1709e6
1.64039e-10,2.13783e6
1.6968399999999999e-10,2.10536e6
1.75523e-10,2.0734599999999998e6
1.8156300000000002e-10,2.0421399999999998e6
1.8781000000000002e-10,2.0113699999999998e6
1.9427300000000002e-10,1.98116e6
2.0095800000000003e-10,1.95149e6
2.0787300000000003e-10,1.92236e6
2.15027e-10,1.89375e6
2.2242600000000002e-10,1.86565e6
2.3008000000000002e-10,1.83806e6
2.3799700000000003e-10,1.81096e6
2.46187e-10,1.78436e6
2.54658e-10,1.75823e6
2.63422e-10,1.73258e6
2.72486e-10,1.70739e6
2.81863e-10,1.68265e6
2.9156200000000004e-10,1.65836e6
3.0159500000000003e-10,1.63451e6
3.1197300000000004e-10,1.61108e6
3.22708e-10,1.58809e6
3.3381300000000003e-10,1.5655e6
3.453e-10,1.54333e6
3.57182e-10,1.52156e6
3.69473e-10,1.50018e6
3.8218700000000003e-10,1.47918e6
3.9533900000000004e-10,1.45857e6
4.08943e-10,1.43833e6
4.23015e-10,1.41845e6
4.37571e-10,1.39894e6
4.5262900000000006e-10,1.37977e6
4.68204e-10,1.36095e6
4.84316e-10,1.34247e6
5.020400000000001e-10,1.3232e6
5.20417e-10,1.3043e6
5.39463e-10,1.28576e6
5.592100000000001e-10,1.26757e6
5.796750000000001e-10,1.24974e6
6.00894e-10,1.23224e6
6.228850000000001e-10,1.21507e6
6.45685e-10,1.19823e6
6.69316e-10,1.18172e6
6.93815e-10,1.16551e6
7.19207e-10,1.14962e6
7.45533e-10,1.13402e6
7.72818e-10,1.11873e6
8.011060000000001e-10,1.10372e6
8.30425e-10,1.08899e6
8.60821e-10,1.07455e6
8.92325e-10,1.06038e6
9.249879999999999e-10,1.04647e6
9.5884e-10,1.0328299999999999e6
9.93937e-10,1.01945e6
1.0325000000000001e-9,1.00555e6
1.07255e-9,991926.9999999999
1.11416e-9,978576.9999999999
1.15739e-9,965493.0
1.2022900000000002e-9,952668.0000000001
1.2489300000000002e-9,940098.0
1.2973800000000001e-9,927777.0
1.34771e-9,915701.0
1.4e-9,903863.0
1.4543100000000001e-9,892259.0
1.51073e-9,880885.0
1.56934e-9,869735.0
1.6302200000000002e-9,858805.0000000001
1.6934700000000002e-9,848091.0
1.75917e-9,837588.0
1.8312800000000001e-9,826726.0
1.90635e-9,816088.0
1.9845e-9,805672.0
2.0658500000000003e-9,795470.0
2.15054e-9,785481.0
2.2387e-9,775698.0
2.33047e-9,766118.0
2.4260100000000004e-9,756734.0
2.5254500000000002e-9,747546.0
2.62899e-9,738546.0
2.73675e-9,729733.0
2.84895e-9,721100.0
2.9720200000000002e-9,712206.0
3.1004e-9,703504.0
3.23433e-9,694991.0
3.3740500000000004e-9,686661.0
3.5198e-9,678512.0
3.6718400000000004e-9,670538.0
3.8304600000000004e-9,662737.0
3.99592e-9,655104.0
4.1685400000000006e-9,647636.0
4.3578e-9,639968.0
4.55568e-9,632472.0
4.76252e-9,625147.0
4.9787800000000005e-9,617987.0
5.2048300000000005e-9,610989.0
5.44117e-9,604148.0
5.688220000000001e-9,597463.0
5.94651e-9,590927.0
6.216500000000001e-9,584540.0
6.512520000000001e-9,578002.0
6.82264e-9,571619.0
7.1475200000000006e-9,565386.0
7.48788e-9,559300.0
7.84444e-9,553357.0
8.217980000000001e-9,547554.0
8.62755e-9,541633.0
9.05749e-9,535858.0
9.5089e-9,530225.0
9.98277e-9,524732.0
1.04803e-8,519373.00000000006
1.1002600000000001e-8,514146.00000000006
1.1575299999999999e-8,508830.0
1.21779e-8,503648.99999999994
1.28119e-8,498602.0
1.34789e-8,493684.0
1.41805e-8,488892.0
1.49504e-8,484030.0
1.57619e-8,479298.99999999994
1.66176e-8,474693.0
1.75197e-8,470211.0
1.84708e-8,465848.99999999994
1.95147e-8,461435.99999999994
2.06176e-8,457146.0
2.17828e-8,452975.99999999994
2.30139e-8,448923.0
2.4365999999999998e-8,444833.00000000006
2.52522e-8,442335.0
2.5299999999999998e-8,442204.0
2.6786500000000003e-8,438309.0
2.83603e-8,434527.0
3.00901e-8,430720.0
3.1925400000000005e-8,427029.0
3.38727e-8,423449.99999999994
3.60149e-8,419857.0
3.82924e-8,416378.0
4.07141e-8,413009.0
4.33805e-8,409635.0
4.622150000000001e-8,406372.0
4.92486e-8,403214.99999999994
5.2584900000000005e-8,400063.0
5.61475e-8,397019.0
6.00782e-8,393987.0
6.4284e-8,391063.0
6.87843e-8,388245.0
7.37553e-8,385446.0
7.90859e-8,382753.0
8.498100000000001e-8,380085.0
9.13156e-8,377522.0
9.83299e-8,374990.0
1.0588299999999998e-7,372564.0
1.1425799999999999e-7,370175.0
1.23556e-7,367830.0
1.33611e-7,365594.0
1.4479e-7,363408.0
1.57237e-7,361278.0
1.70753e-7,359260.0
1.8582399999999998e-7,357302.0
2.02653e-7,355413.0
2.21474e-7,353599.0
2.42043e-7,351905.0
2.6508299999999997e-7,350294.0
2.90929e-7,348775.0
3.19971e-7,347355.0
3.52658e-7,346042.0
3.89508e-7,344847.0
4.31118e-7,343781.0
4.78182e-7,342859.0
5.32633e-7,342079.0
5.9454e-7,341480.0
6.65046e-7,341082.0
7.47069e-7,340910.0
7.614199999999999e-7,340906.0
8.57211e-7,341043.0
9.67015e-7,341486.0
1.1103799999999999e-6,342403.0
1.38937e-6,344960.0
1.93113e-6,351707.0
2.7992e-6,365368.0
3.80968e-6,384292.0
4.83416e-6,406429.0
5.88168e-6,432219.0
6.86165e-6,459644.00000000006
7.78372e-6,488711.0
8.6463e-6,519349.0
9.47038e-6,552092.0
1.0229200000000002e-5,585715.0
1.0971400000000001e-5,622621.0
1.16038e-5,657480.0
1.2272600000000002e-5,698216.0
1.2889100000000002e-5,740300.0
1.3442300000000002e-5,782115.0
1.3921800000000001e-5,821824.9999999999
1.4417700000000001e-5,866898.0
1.4932000000000002e-5,918587.0
1.54639e-5,977603.0
1.59033e-5,1.03217e6
1.6355200000000002e-5,1.09422e6
1.68199e-5,1.16535e6
1.7177500000000003e-5,1.226e6
1.7541900000000002e-5,1.29381e6
1.79149e-5,1.37063e6
1.8294900000000003e-5,1.45767e6
1.8683800000000002e-5,1.55776e6
1.89474e-5,1.63288e6
1.92148e-5,1.71606e6
1.9485800000000002e-5,1.80864e6
1.9760800000000002e-5,1.9123e6
2.0039500000000004e-5,2.0286499999999998e6
2.0322300000000004e-5,2.16101e6
2.05368e-5,2.27267e6
2.0753300000000003e-5,2.39673e6
2.0972900000000004e-5,2.53607e6
2.1194600000000002e-5,2.69292e6
2.1418300000000005e-5,2.87081e6
2.16442e-5,3.07427e6
2.17968e-5,3.22774e6
2.19495e-5,3.39658e6
2.2104400000000005e-5,3.58641e6
2.2259200000000002e-5,3.79757e6
2.2416200000000004e-5,4.03752e6
2.2534e-5,4.23762e6
2.2652800000000004e-5,4.46006e6
2.2772300000000002e-5,4.70756e6
2.28917e-5,4.98289e6
2.3012800000000004e-5,5.29571e6
2.3133900000000002e-5,5.65011e6
2.3214700000000003e-5,5.91346e6
2.3296500000000003e-5,6.20624e6
2.33784e-5,6.52881e6
2.34603e-5,6.88591e6
2.3542200000000003e-5,7.28332e6
2.3625200000000002e-5,7.73478e6
2.3708200000000005e-5,8.244210000000001e6
2.3770500000000002e-5,8.67118e6
2.3832800000000003e-5,9.14314e6
2.3874300000000003e-5,9.48621e6
2.39397e-5,1.008e7
2.4005200000000005e-5,1.0749200000000002e7
2.40543e-5,1.13097e7
2.4103400000000004e-5,1.19288e7
2.4153500000000002e-5,1.26311e7
2.4205700000000004e-5,1.34505e7
2.4257900000000004e-5,1.43754e7
2.43002e-5,1.52152e7
2.4337500000000002e-5,1.60348e7
2.43748e-5,1.69392e7
2.44121e-5,1.7941e7
2.44494e-5,1.90551e7
2.44867e-5,2.02992e7
2.4524e-5,2.16946e7
2.45613e-5,2.32667e7
2.45862e-5,2.44277e7
2.4611000000000002e-5,2.5691e7
2.4635900000000002e-5,2.70684e7
2.46608e-5,2.85729e7
2.4685600000000003e-5,3.02191e7
2.4710500000000003e-5,3.2023e7
2.47354e-5,3.4002e7
2.4760200000000004e-5,3.61746e7
2.47851e-5,3.85599e7
2.481e-5,4.11768e7
2.4834800000000005e-5,4.40425e7
2.4859700000000002e-5,4.717050000000001e7
2.4884600000000002e-5,5.05676e7
2.4909400000000002e-5,5.42304e7
2.4946700000000003e-5,6.01765e7
2.50338e-5,7.50556e7
2.50587e-5,7.90441e7
2.5086e-5,8.29336e7
2.5108400000000002e-5,8.55495e7
2.5130800000000003e-5,8.7503e7
2.5149400000000004e-5,8.85331e7
2.51681e-5,8.89568e7
2.5180500000000004e-5,8.888159999999999e7
2.5198700000000003e-5,8.824210000000001e7
2.5216800000000002e-5,8.69727e7
2.5231e-5,8.55551e7
2.5246400000000003e-5,8.361090000000001e7
2.5265100000000003e-5,8.07454e7
2.52837e-5,7.73885e7
2.5302400000000004e-5,7.36285e7
2.53272e-5,6.81556e7
2.54012e-5,5.08653e7
2.54236e-5,4.5873e7
2.5444100000000003e-5,4.1543e7
2.5464000000000006e-5,3.76104e7
2.5478900000000004e-5,3.48473e7
2.5493800000000003e-5,3.22493e7
2.55088e-5,2.98174e7
2.55237e-5,2.7549800000000004e7
2.55386e-5,2.54422e7
2.55535e-5,2.34889e7
2.55684e-5,2.1682800000000004e7
2.55834e-5,2.00157e7
2.5598300000000002e-5,1.84794e7
2.56132e-5,1.70651e7
2.56281e-5,1.57644e7
2.5643e-5,1.4568700000000002e7
2.5658e-5,1.34701e7
2.56735e-5,1.2420500000000002e7
2.5690300000000004e-5,1.13865e7
2.5707100000000003e-5,1.04464e7
2.5723900000000003e-5,9.59144e6
2.57406e-5,8.81364e6
2.5757400000000005e-5,8.10566e6
2.57742e-5,7.46087e6
2.5791e-5,6.87331e6
2.58078e-5,6.33756e6
2.5824600000000003e-5,5.84877e6
2.5841400000000003e-5,5.40256e6
2.5859400000000002e-5,4.96625e6
2.5878000000000002e-5,4.55719e6
2.5896700000000002e-5,4.18687e6
2.5915300000000002e-5,3.85148e6
2.5934000000000003e-5,3.5476e6
2.5952600000000003e-5,3.27221e6
2.59713e-5,3.02259e6
2.5989900000000003e-5,2.79634e6
2.60086e-5,2.59129e6
2.6027200000000004e-5,2.40553e6
2.60459e-5,2.23732e6
2.6064500000000004e-5,2.0851199999999998e6
2.60832e-5,1.94753e6
2.6101800000000005e-5,1.82329e6
2.6120500000000002e-5,1.7113e6
2.6139100000000005e-5,1.61052e6
2.6157800000000002e-5,1.52005e6
2.6176400000000006e-5,1.43906e6
2.6195100000000003e-5,1.36679e6
2.6213700000000003e-5,1.30257e6
2.6232400000000003e-5,1.24578e6
2.6251000000000003e-5,1.19586e6
2.6269700000000004e-5,1.15231e6
2.62883e-5,1.11466e6
2.6307000000000004e-5,1.0825e6
2.6319400000000004e-5,1.06391e6
2.63443e-5,1.03312e6
2.6366400000000002e-5,1.0124200000000001e6
2.6388400000000003e-5,997439.9999999999
2.64105e-5,987762.0
2.6436700000000004e-5,982621.0
2.6444800000000005e-5,982335.9999999999
2.64734e-5,985953.0
2.64979e-5,994411.0
2.6530500000000003e-5,1.01274e6
2.6563100000000003e-5,1.03847e6
2.65942e-5,1.06927e6
2.66253e-5,1.10574e6
2.66564e-5,1.1475e6
2.6687500000000005e-5,1.19419e6
2.6734100000000002e-5,1.27288e6
2.6780700000000003e-5,1.36125e6
2.6830500000000003e-5,1.46549e6
2.68864e-5,1.59437e6
2.6942400000000005e-5,1.73502e6
2.6998300000000002e-5,1.8872e6
2.70543e-5,2.0508799999999998e6
2.7110200000000003e-5,2.22625e6
2.7170100000000003e-5,2.42751e6
2.7230100000000002e-5,2.64339e6
2.7290000000000005e-5,2.87482e6
2.73499e-5,3.1229e6
2.7409900000000003e-5,3.38904e6
2.74734e-5,3.6927e6
2.75386e-5,4.0308e6
2.7603900000000002e-5,4.39847e6
2.76692e-5,4.79972e6
2.7734500000000004e-5,5.23938e6
2.77966e-5,5.69913e6
2.78526e-5,6.15215e6
2.7908500000000002e-5,6.64775e6
2.7964500000000003e-5,7.19229e6
2.80204e-5,7.79363e6
2.8076400000000004e-5,8.46139e6
2.8116200000000004e-5,8.98292e6
2.8156e-5,9.54873e6
2.8195800000000005e-5,1.01645e7
2.82355e-5,1.08369e7
2.82728e-5,1.15258e7
2.8310100000000002e-5,1.22789e7
2.8347400000000002e-5,1.31053e7
2.8384700000000003e-5,1.40154e7
2.8422000000000003e-5,1.50216e7
2.8459300000000004e-5,1.61388e7
2.8496600000000004e-5,1.73843e7
2.8533900000000005e-5,1.87793e7
2.8558800000000002e-5,1.98043e7
2.8583700000000002e-5,2.09153e7
2.8608600000000003e-5,2.21219e7
2.8633400000000003e-5,2.34347e7
2.86583e-5,2.48658e7
2.8683200000000003e-5,2.64283e7
2.8708000000000004e-5,2.81367e7
2.87329e-5,3.0006400000000004e7
2.87578e-5,3.20539e7
2.87826e-5,3.42956e7
2.88075e-5,3.67473e7
2.8832400000000002e-5,3.94229e7
2.8857200000000002e-5,4.233189999999999e7
2.8882100000000003e-5,4.54775e7
2.8907e-5,4.885239999999999e7
2.89443e-5,5.42933e7
2.90313e-5,6.76927e7
2.9061100000000002e-5,7.18932e7
2.9081000000000005e-5,7.4365e7
2.91009e-5,7.6473e7
2.91233e-5,7.83041e7
2.9142000000000003e-5,7.93171e7
2.91606e-5,7.9808e7
2.9169900000000003e-5,7.98453e7
2.91883e-5,7.94988e7
2.9206300000000002e-5,7.86091e7
2.9225300000000003e-5,7.70944e7
2.92439e-5,7.50539e7
2.9262600000000003e-5,7.25139e7
2.92812e-5,6.95367e7
2.9299900000000004e-5,6.619640000000001e7
2.93247e-5,6.13199e7
2.93714e-5,5.15221e7
2.94093e-5,4.36071e7
2.9434100000000003e-5,3.87037e7
2.9454e-5,3.50203e7
2.9473900000000003e-5,3.15821e7
2.94889e-5,2.9174699999999996e7
2.9503800000000004e-5,2.69176e7
2.9518700000000003e-5,2.48111e7
2.95336e-5,2.28527e7
2.9548500000000003e-5,2.10384e7
2.9563500000000002e-5,1.93627e7
2.95784e-5,1.7819e7
2.9593300000000003e-5,1.64002e7
2.9608200000000002e-5,1.50987e7
2.96231e-5,1.39069e7
2.9638100000000003e-5,1.2817e7
2.9653000000000002e-5,1.18217e7
2.9667900000000004e-5,1.09138e7
2.9682800000000003e-5,1.0086599999999998e7
2.9697700000000002e-5,9.33356e6
2.9712700000000004e-5,8.64879e6
2.9723900000000002e-5,8.17667e6
2.9736300000000002e-5,7.69082e6
2.9748700000000002e-5,7.24305e6
2.9761200000000002e-5,6.83076e6
2.9773600000000002e-5,6.45153e6
2.9786000000000002e-5,6.10315e6
2.9798500000000003e-5,5.78353e6
2.9810900000000003e-5,5.49078e6
2.9822700000000005e-5,5.23595e6
2.9839500000000005e-5,4.91008e6
2.9856300000000004e-5,4.62353e6
2.98731e-5,4.37305e6
2.9889800000000003e-5,4.15574e6
2.9906600000000003e-5,3.96902e6
2.9924300000000004e-5,3.80256e6
2.99421e-5,3.66522e6
2.99598e-5,3.5549e6
2.9977500000000002e-5,3.46972e6
2.9995200000000004e-5,3.40806e6
3.0013600000000003e-5,3.36751e6
3.00322e-5,3.34914e6
3.00384e-5,3.34792e6
3.0057100000000004e-5,3.35844e6
3.00757e-5,3.38945e6
3.0094400000000004e-5,3.44013e6
3.0113e-5,3.50981e6
3.01314e-5,3.59647e6
3.0149200000000003e-5,3.69711e6
3.0172900000000004e-5,3.85649e6
3.01966e-5,4.04443e6
3.0220300000000003e-5,4.26096e6
3.0244000000000004e-5,4.50639e6
3.02677e-5,4.78133e6
3.0291400000000003e-5,5.08668e6
3.03151e-5,5.42366e6
3.034e-5,5.81278e6
3.0364800000000004e-5,6.24054e6
3.03897e-5,6.70952e6
3.0414600000000002e-5,7.22281e6
3.0439500000000006e-5,7.78402e6
3.0464300000000002e-5,8.39735e6
3.04892e-5,9.06767e6
3.0514100000000003e-5,9.8006e6
3.05389e-5,1.06026e7
3.05638e-5,1.14811e7
3.058870000000001e-5,1.24445e7
3.06135e-5,1.35025e7
3.06384e-5,1.46661e7
3.0657e-5,1.56155e7
3.06757e-5,1.6637e7
3.06943e-5,1.77369e7
3.0713e-5,1.8922e7
3.07316e-5,2.01994e7
3.07503e-5,2.15768e7
3.07689e-5,2.3062e7
3.07876e-5,2.4663e7
3.08062e-5,2.6387900000000004e7
3.0824900000000004e-5,2.8243999999999996e7
3.0843500000000004e-5,3.02379e7
3.0862200000000004e-5,3.2374900000000004e7
3.08871e-5,3.54518e7
3.0911900000000005e-5,3.87871e7
3.0936800000000005e-5,4.236640000000001e7
3.09617e-5,4.615770000000001e7
3.1045e-5,5.95075e7
3.10674e-5,6.289920000000001e7
3.10897e-5,6.60082e7
3.1113400000000006e-5,6.88515e7
3.1132e-5,7.06897e7
3.11507e-5,7.21018e7
3.1167900000000004e-5,7.29836e7
3.118520000000001e-5,7.34251e7
3.1193800000000006e-5,7.3474e7
3.120960000000001e-5,7.32606e7
3.1223800000000004e-5,7.27356e7
3.12419e-5,7.16124e7
3.12601e-5,7.00076e7
3.12787e-5,6.78999e7
3.12974e-5,6.53835e7
3.1317300000000006e-5,6.23245e7
3.13397e-5,5.85294e7
3.1369500000000005e-5,5.31034e7
3.14254e-5,4.27161e7
3.1453400000000006e-5,3.77925e7
3.1469e-5,3.52011e7
3.14889e-5,3.20605e7
3.15088e-5,2.91337e7
3.1523700000000004e-5,2.70839e7
3.15386e-5,2.51597e7
3.15535e-5,2.33596e7
3.15684e-5,2.16809e7
3.15834e-5,2.01193e7
3.15983e-5,1.86701e7
3.1613200000000004e-5,1.73276e7
3.16294e-5,1.5987e7
3.16461e-5,1.4712099999999998e7
3.1662900000000005e-5,1.35482e7
3.16797e-5,1.24869e7
3.1696500000000004e-5,1.15202e7
3.17139e-5,1.0609599999999998e7
3.17263e-5,1.00121e7
3.17388e-5,9.45568e6
3.17512e-5,8.93772e6
3.17636e-5,8.45589e6
3.17761e-5,8.00797e6
3.17947e-5,7.39514e6
3.18134e-5,6.84755e6
3.1832e-5,6.35944e6
3.18507e-5,5.92568e6
3.18693e-5,5.54173e6
3.1888000000000004e-5,5.20351e6
3.1906600000000004e-5,4.90744e6
3.1925300000000004e-5,4.65034e6
3.1943900000000004e-5,4.42941e6
3.1962600000000005e-5,4.24219e6
3.19812e-5,4.08652e6
3.1999900000000005e-5,3.96051e6
3.2014800000000004e-5,3.87996e6
3.20322e-5,3.80767e6
3.20496e-5,3.75779e6
3.2067e-5,3.72943e6
3.20819e-5,3.72171e6
3.21006e-5,3.73296e6
3.21192e-5,3.76688e6
3.21379e-5,3.82298e6
3.21566e-5,3.90097e6
3.21752e-5,4.00063e6
3.2197700000000005e-5,4.14999e6
3.222030000000001e-5,4.3311e6
3.22428e-5,4.5444e6
3.2265400000000005e-5,4.79056e6
3.2284000000000005e-5,5.01973e6
3.2302700000000005e-5,5.27275e6
3.2321300000000005e-5,5.55046e6
3.2340000000000005e-5,5.85384e6
3.2358600000000006e-5,6.18403e6
3.2377300000000006e-5,6.54233e6
3.2395900000000006e-5,6.93023e6
3.24146e-5,7.34939e6
3.2433200000000007e-5,7.8017e6
3.24519e-5,8.289260000000001e6
3.247050000000001e-5,8.81441e6
3.24892e-5,9.37978e6
3.25078e-5,9.98828e6
3.25265e-5,1.06431e7
3.25451e-5,1.13479e7
3.25638e-5,1.21066e7
3.25824e-5,1.29236e7
3.26011e-5,1.38036e7
3.26197e-5,1.47522e7
3.26384e-5,1.5774999999999998e7
3.2657e-5,1.68785e7
3.26757e-5,1.80697e7
3.26943e-5,1.93562e7
3.2713000000000003e-5,2.0746000000000004e7
3.2731600000000004e-5,2.2248e7
3.2750300000000004e-5,2.38712e7
3.2768900000000004e-5,2.56252e7
3.2787600000000004e-5,2.75196e7
3.2806200000000004e-5,2.9564e7
3.2824900000000005e-5,3.17672e7
3.28435e-5,3.41375e7
3.2862200000000005e-5,3.66809e7
3.28808e-5,3.94016e7
3.2899500000000006e-5,4.22998e7
3.2924400000000006e-5,4.64326e7
3.29492e-5,5.08478e7
3.29865e-5,5.78874e7
3.304870000000001e-5,6.99513e7
3.30773e-5,7.51444e7
3.31015e-5,7.90972e7
3.31258e-5,8.245749999999999e7
3.31444e-5,8.45387e7
3.31631e-5,8.61125e7
3.3183000000000004e-5,8.71764e7
3.31979e-5,8.75341e7
3.32054e-5,8.75681e7
3.32238e-5,8.72378e7
3.3241900000000004e-5,8.634499999999999e7
3.3260100000000004e-5,8.491669999999999e7
3.3278700000000004e-5,8.29379e7
3.3297400000000004e-5,8.05034e7
3.33173e-5,7.74884e7
3.33397e-5,7.37032e7
3.33819e-5,6.592399999999999e7
3.34192e-5,5.899479999999999e7
3.34441e-5,5.461630000000001e7
3.346900000000001e-5,5.05658e7
3.34876e-5,4.77918e7
3.350630000000001e-5,4.52694e7
3.35249e-5,4.30126e7
3.35436e-5,4.10286e7
3.35622e-5,3.9319e7
3.3581500000000004e-5,3.78378e7
3.3601100000000006e-5,3.66239e7
3.36207e-5,3.56953e7
3.3640300000000004e-5,3.5042e7
3.36598e-5,3.46535e7
3.3680900000000005e-5,3.45193e7
3.36942e-5,3.45806e7
3.3715500000000006e-5,3.49057e7
3.37368e-5,3.55e7
3.3758200000000005e-5,3.6353e7
3.37795e-5,3.74544e7
3.3800800000000003e-5,3.87942e7
3.38221e-5,4.036260000000001e7
3.38434e-5,4.21486e7
3.38636e-5,4.40308e7
3.3893900000000004e-5,4.717539999999999e7
3.39242e-5,5.06644e7
3.39544e-5,5.44412e7
3.4004900000000004e-5,6.11822e7
3.40722e-5,7.04024e7
3.41171e-5,7.61746e7
3.4150700000000005e-5,8.00469e7
3.4184400000000004e-5,8.33676e7
3.42093e-5,8.53979e7
3.4234800000000006e-5,8.70534e7
