E(MeV),xs(mb)
1.0e-11,1.8317e6
1.03223e-11,1.80291e6
1.06549e-11,1.77458e6
1.0998399999999998e-11,1.74669e6
1.13527e-11,1.71925e6
1.1718599999999999e-11,1.69223e6
1.2096199999999998e-11,1.66564e6
1.24861e-11,1.63947e6
1.2888399999999999e-11,1.61372e6
1.3303799999999998e-11,1.58836e6
1.37325e-11,1.56341e6
1.41751e-11,1.53885e6
1.4631799999999997e-11,1.51468e6
1.51034e-11,1.49089e6
1.5590099999999998e-11,1.46747e6
1.6092599999999998e-11,1.44442e6
1.66111e-11,1.42174e6
1.71465e-11,1.39941e6
1.7699e-11,1.37744e6
1.8269399999999998e-11,1.35581e6
1.88581e-11,1.33453e6
1.94659e-11,1.31357e6
2.00931e-11,1.29295e6
2.0740699999999998e-11,1.27265e6
2.1408999999999998e-11,1.25268e6
2.2099099999999997e-11,1.23302e6
2.28111e-11,1.21367e6
2.3546399999999998e-11,1.19462e6
2.4305099999999997e-11,1.17588e6
2.50884e-11,1.15743e6
2.5896799999999997e-11,1.13927e6
2.67315e-11,1.1214e6
2.75928e-11,1.10381e6
2.8482199999999998e-11,1.08649e6
2.93999e-11,1.06946e6
3.0347499999999995e-11,1.05268e6
3.13253e-11,1.0361800000000001e6
3.2335e-11,1.01993e6
3.33769e-11,1.0039499999999999e6
3.44526e-11,988208.0
3.55627e-11,972722.0000000001
3.67089e-11,957476.9999999999
3.7891799999999997e-11,942475.9999999999
3.9113e-11,927708.0
4.0373400000000003e-11,913177.0
4.1674599999999996e-11,898873.0
4.3017399999999996e-11,884797.0
4.440389999999999e-11,870941.0
4.58347e-11,857307.0
4.7311899999999994e-11,843886.0
4.883639999999999e-11,830679.0
5.0410399999999995e-11,817678.0000000001
5.20348e-11,804886.0
5.37119e-11,792293.0
5.54426e-11,779902.0
5.7229499999999995e-11,767704.0
5.907359999999999e-11,755702.0
6.09775e-11,743887.0
6.29424e-11,732261.0
6.497099999999999e-11,720817.0
6.70645e-11,709556.0
6.9226e-11,698472.0
7.145659999999999e-11,687565.0
7.37596e-11,676828.0
7.61364e-11,666264.0
7.85902e-11,655865.0
8.11227e-11,645632.0
8.37372e-11,635560.0
8.643549999999999e-11,625649.0
8.922119999999998e-11,615893.0
9.209619999999999e-11,606294.0
9.506439999999999e-11,596845.0
9.81277e-11,587547.0
1.01291e-10,578394.0
1.04554e-10,569390.0
1.07924e-10,560525.0
1.11402e-10,551805.0
1.1499200000000001e-10,543219.0
1.1869700000000001e-10,534772.0
1.22523e-10,526457.0
1.26471e-10,518276.99999999994
1.30547e-10,510222.99999999994
1.34754e-10,502299.99999999994
1.3909700000000002e-10,494500.0
1.43579e-10,486827.0
1.48207e-10,479272.0
1.52982e-10,471841.00000000006
1.57913e-10,464525.0
1.6300100000000001e-10,457327.0
1.68254e-10,450242.0
1.73676e-10,443271.0
1.79274e-10,436409.0
1.8505000000000002e-10,429657.99999999994
1.91014e-10,423012.00000000006
1.97169e-10,416474.0
2.03524e-10,410038.00000000006
2.1008200000000003e-10,403706.00000000006
2.16853e-10,397473.0
2.2384e-10,391341.0
2.31055e-10,385304.0
2.385e-10,379366.0
2.46187e-10,373520.0
2.5412e-10,367768.0
2.6231e-10,362107.0
2.70762e-10,356537.0
2.7948900000000003e-10,351054.0
2.88494e-10,345660.0
2.9779300000000004e-10,340350.0
3.07388e-10,335126.0
3.1729500000000004e-10,329984.0
3.27519e-10,324925.0
3.38075e-10,319945.0
3.4896900000000003e-10,315046.0
3.6021600000000004e-10,310223.0
3.7182300000000004e-10,305478.0
3.83807e-10,300807.0
3.96174e-10,296212.0
4.08943e-10,291689.0
4.2212e-10,287239.0
4.3572499999999996e-10,282858.0
4.4976500000000005e-10,278548.0
4.6426100000000007e-10,274306.0
4.79221e-10,270132.0
4.94666e-10,266023.0
5.10605e-10,261981.00000000003
5.270620000000001e-10,258002.00000000003
5.440450000000001e-10,254087.0
5.6158e-10,250233.99999999997
5.796750000000001e-10,246442.0
5.98358e-10,242709.99999999997
6.176389999999999e-10,239038.0
6.37545e-10,235422.99999999997
6.58089e-10,231867.0
6.79298e-10,228365.99999999997
7.01188e-10,224922.00000000003
7.237860000000001e-10,221532.00000000003
7.47109e-10,218196.0
7.71188e-10,214912.0
7.960380000000001e-10,211681.0
8.21693e-10,208501.0
8.48171e-10,205372.00000000003
8.75507e-10,202292.0
9.037190000000002e-10,199261.0
9.32845e-10,196278.0
9.62904e-10,193342.0
9.93937e-10,190453.0
1.0259700000000001e-9,187610.0
1.05903e-9,184811.0
1.09316e-9,182058.0
1.12839e-9,179347.0
1.16475e-9,176680.0
1.2022900000000002e-9,174055.0
1.2410300000000002e-9,171472.0
1.28103e-9,168929.0
1.3223100000000002e-9,166427.0
1.36492e-9,163964.0
1.4089000000000002e-9,161540.0
1.4543100000000001e-9,159155.0
1.5011699999999999e-9,156807.0
1.5495600000000002e-9,154497.0
1.5994900000000002e-9,152223.0
1.6510400000000001e-9,149985.0
1.7042400000000001e-9,147782.0
1.75917e-9,145615.0
1.81585e-9,143481.0
1.87834e-9,141243.0
1.9429700000000004e-9,139042.0
2.0098300000000003e-9,136879.0
2.07899e-9,134752.0
2.15054e-9,132661.0
2.2245400000000003e-9,130605.0
2.30109e-9,128583.0
2.38027e-9,126596.0
2.4621800000000003e-9,124642.00000000001
2.5469e-9,122720.99999999999
2.63455e-9,120832.99999999999
2.7252e-9,118976.0
2.81898e-9,117151.0
2.91599e-9,115355.99999999999
3.01633e-9,113592.0
3.12012e-9,111857.0
3.22749e-9,110152.0
3.3385500000000002e-9,108475.00000000001
3.4534400000000004e-9,106826.0
3.57227e-9,105205.0
3.6952000000000002e-9,103612.0
3.822360000000001e-9,102045.00000000001
3.95389e-9,100505.0
4.08995e-9,98990.3
4.23069e-9,97501.4
4.37627e-9,96037.40000000001
4.526860000000001e-9,94598.09999999999
4.682640000000001e-9,93183.1
4.8437700000000005e-9,91791.8
5.01045e-9,90424.0
5.182870000000001e-9,89079.20000000001
5.361220000000001e-9,87757.0
5.545700000000001e-9,86457.0
5.73653e-9,85178.9
5.93394e-9,83922.3
6.138130000000001e-9,82686.9
6.349350000000001e-9,81472.09999999999
6.567840000000001e-9,80277.8
6.7938500000000005e-9,79103.59999999999
7.0276300000000005e-9,77949.0
7.26946e-9,76813.90000000001
7.51961e-9,75697.8
7.77837e-9,74600.40000000001
8.046030000000001e-9,73521.40000000001
8.32291e-9,72460.6
8.60931e-9,71417.59999999999
8.905560000000001e-9,70392.09999999999
9.21201e-9,69383.8
9.52901e-9,68392.5
9.85691e-9,67417.8
1.01961e-8,66459.5
1.0547e-8,65517.3
1.09099e-8,64591.0
1.1285300000000001e-8,63680.2
1.1673700000000001e-8,62784.8
1.20754e-8,61904.3
1.24909e-8,61038.7
1.29207e-8,60187.5
1.33937e-8,59298.700000000004
1.38838e-8,58425.799999999996
1.4392e-8,57568.299999999996
1.4918800000000002e-8,56726.1
1.5464800000000002e-8,55898.8
1.6030800000000002e-8,55086.3
1.66176e-8,54288.2
1.72258e-8,53504.4
1.78563e-8,52734.4
1.85098e-8,51978.200000000004
1.91873e-8,51235.299999999996
1.98896e-8,50505.8
2.06176e-8,49789.2
2.13721e-8,49085.5
2.2154400000000003e-8,48394.1
2.2965200000000002e-8,47715.2
2.38058e-8,47048.3
2.46771e-8,46393.3
2.52522e-8,45979.6
2.5299999999999998e-8,45945.9
2.6226099999999998e-8,45310.3
2.71859e-8,44686.1
2.8181e-8,44072.899999999994
2.9212400000000002e-8,43470.6
3.0281600000000004e-8,42878.9
3.13899e-8,42297.700000000004
3.2538900000000006e-8,41726.9
3.37297e-8,41166.200000000004
3.4964300000000004e-8,40615.50000000001
3.6244000000000003e-8,40074.7
3.7570600000000004e-8,39543.4
3.89456e-8,39021.6
4.04565e-8,38479.0
4.20261e-8,37946.5
4.36565e-8,37423.9
4.53501e-8,36911.1
4.71095e-8,36407.799999999996
4.8937099999999996e-8,35913.9
5.0835600000000004e-8,35429.2
5.28078e-8,34953.7
5.48564e-8,34486.9
5.69846e-8,34028.9
5.91953e-8,33579.5
6.149180000000001e-8,33138.4
6.38774e-8,32705.5
6.63555e-8,32280.7
6.89298e-8,31863.800000000003
7.160389999999999e-8,31454.7
7.43818e-8,31053.3
7.726740000000001e-8,30659.399999999998
8.04351e-8,30251.399999999998
8.37322e-8,29851.5
8.716490000000001e-8,29459.1
9.0738e-8,29074.399999999998
9.44579e-8,28697.2
9.83299e-8,28327.399999999998
1.0236099999999999e-7,27964.699999999997
1.0655699999999998e-7,27609.1
1.10925e-7,27260.300000000003
1.1547199999999999e-7,26918.4
1.2020599999999998e-7,26583.0
1.25134e-7,26254.2
1.30264e-7,25931.600000000002
1.35603e-7,25615.3
1.4116299999999998e-7,25305.100000000002
1.46949e-7,25000.9
1.53297e-7,24687.100000000002
1.59919e-7,24379.7
1.66827e-7,24078.300000000003
1.7403399999999998e-7,23782.800000000003
1.8155099999999998e-7,23493.2
1.8939399999999998e-7,23209.399999999998
1.9757499999999997e-7,22931.300000000003
2.0611e-7,22658.6
2.15014e-7,22391.399999999998
2.24302e-7,22129.500000000004
2.3448699999999997e-7,21859.899999999998
2.45133e-7,21596.000000000004
2.56264e-7,21337.4
2.67899e-7,21084.2
2.80064e-7,20836.100000000002
2.9278e-7,20593.0
3.06075e-7,20354.899999999998
3.19971e-7,20121.8
3.35208e-7,19882.4
3.50429e-7,19658.5
3.6711599999999996e-7,19428.6
3.8459699999999996e-7,19203.399999999998
4.0291100000000003e-7,18982.9
4.22097e-7,18766.9
4.42197e-7,18555.3
4.632539999999999e-7,18347.899999999998
4.85313e-7,18144.7
5.08423e-7,17945.4
5.3376e-7,17741.4
5.60362e-7,17541.5
5.88286e-7,17345.600000000002
6.17606e-7,17153.8
6.497569999999999e-7,16957.8
6.82137e-7,16773.3
7.16134e-7,16592.7
7.534139999999999e-7,16407.8
7.92636e-7,16226.7
8.33899e-7,16049.1
8.773099999999999e-7,15875.0
9.229819999999999e-7,15704.400000000001
9.73084e-7,15530.1
1.0207699999999998e-6,15375.2
1.08722e-6,15175.099999999999
1.17428e-6,14937.0
1.2862599999999998e-6,14664.2
1.42873e-6,14359.800000000001
1.62073e-6,14010.3
1.8776099999999999e-6,13620.6
2.22135e-6,13200.5
2.6280199999999998e-6,12809.5
3.13092e-6,12439.9
3.6525699999999996e-6,12158.0
4.17263e-6,11966.2
4.667500000000001e-6,11867.0
4.94418e-6,11851.3
5.34034e-6,11889.7
5.68771e-6,11997.599999999999
5.9737e-6,12155.7
6.23012e-6,12368.5
6.45203e-6,12624.0
6.63536e-6,12900.1
6.823909999999999e-6,13262.8
6.969e-6,13608.1
7.116819999999999e-6,14039.900000000001
7.268139999999999e-6,14584.5
7.37068e-6,15026.8
7.474669999999999e-6,15549.699999999999
7.580119999999999e-6,16172.2
7.68706e-6,16919.6
7.76821e-6,17581.5
7.85012e-6,18349.7
7.933179999999999e-6,19251.5
8.01703e-6,20313.7
8.07319e-6,21126.7
8.130129999999999e-6,22048.399999999998
8.18708e-6,23081.5
8.244839999999999e-6,24265.1
8.30259e-6,25611.7
8.34651e-6,26761.6
8.39044e-6,28036.9
8.43457e-6,29462.7
8.47912e-6,31071.300000000003
8.52366e-6,32877.1
8.56863e-6,34933.299999999996
8.613799999999999e-6,37276.5
8.64391e-6,39017.8
8.674239999999998e-6,40937.1
8.704779999999999e-6,43059.6
8.735319999999999e-6,45397.600000000006
8.76587e-6,47980.9
8.796620000000001e-6,50865.4
8.827590000000001e-6,54099.00000000001
8.85856e-6,57713.200000000004
8.88179e-6,60710.8
8.90502e-6,63989.1
8.92858e-6,67638.2
8.95213e-6,71657.5
8.97569e-6,76096.9
8.99925e-6,81014.5
9.0228e-6,86479.59999999999
9.04658e-6,92636.7
9.07047e-6,99576.7
9.086399999999998e-6,104685.99999999999
9.10232e-6,110234.00000000001
9.118249999999999e-6,116270.99999999999
9.13417e-6,122857.0
9.150099999999999e-6,130058.99999999999
9.167109999999998e-6,138521.0
9.1852e-6,148518.0
9.198769999999999e-6,156785.0
9.21234e-6,165800.0
9.22591e-6,175655.0
9.23839e-6,185550.0
9.25032e-6,195851.0
9.26225e-6,207072.0
9.27671e-6,222068.99999999997
9.28756e-6,234453.99999999997
9.2984e-6,247942.99999999997
9.30925e-6,262672.0
9.32009e-6,278798.0
9.33094e-6,296503.0
9.341789999999999e-6,316004.0
9.35263e-6,337552.0
9.363479999999998e-6,361447.0
9.37432e-6,388045.0
9.38517e-6,417772.0
9.3924e-6,439578.0
9.39963e-6,463181.0
9.40686e-6,488783.0
9.4151e-6,520709.0
9.423349999999998e-6,555939.0
9.431589999999999e-6,594946.0
9.43983e-6,638285.0
9.44735e-6,682153.0
9.45487e-6,730756.0
9.462389999999999e-6,784772.0
9.46803e-6,829310.0000000001
9.472799999999998e-6,870001.0000000001
9.47859e-6,923404.0
9.48437e-6,981756.0
9.490159999999998e-6,1.0456099999999999e6
9.49594e-6,1.1156e6
9.50172e-6,1.19238e6
9.507509999999999e-6,1.27672e6
9.513289999999998e-6,1.3694e6
9.51908e-6,1.47128e6
9.52486e-6,1.58327e6
9.53065e-6,1.7063e6
9.53643e-6,1.84131e6
9.54222e-6,1.98926e6
9.547999999999999e-6,2.15102e6
9.553779999999999e-6,2.32743e6
9.55957e-6,2.51916e6
9.56535e-6,2.72674e6
9.57114e-6,2.95046e6
9.57692e-6,3.1903e6
9.58271e-6,3.44592e6
9.591379999999998e-6,3.85715e6
9.600059999999999e-6,4.29752e6
9.61163e-6,4.91728e6
9.63187e-6,6.01771e6
9.640549999999999e-6,6.45855e6
9.64923e-6,6.85758e6
9.65501e-6,7.09231e6
9.66137e-6,7.31533e6
9.66774e-6,7.4963e6
9.67352e-6,7.62056e6
9.679309999999998e-6,7.70377e6
9.68486e-6,7.74343e6
9.68764e-6,7.74822e6
9.693709999999999e-6,7.72362e6
9.69897e-6,7.66386e6
9.70476e-6,7.5584e6
9.710539999999999e-6,7.41354e6
9.71662e-6,7.22242e6
9.72269e-6,6.99559e6
9.72963e-6,6.69902e6
9.73831e-6,6.28415e6
9.749879999999998e-6,5.68118e6
9.77012e-6,4.59058e6
9.7788e-6,4.14234e6
9.78747e-6,3.71899e6
9.793259999999999e-6,3.45354e6
9.79904e-6,3.20288e6
9.80483e-6,2.96769e6
9.81061e-6,2.74824e6
9.8164e-6,2.54452e6
9.82218e-6,2.3562e6
9.82797e-6,2.18276e6
9.83375e-6,2.02353e6
9.83953e-6,1.87771e6
9.845319999999998e-6,1.74443e6
9.8511e-6,1.62279e6
9.85689e-6,1.51186e6
9.86267e-6,1.41076e6
9.868460000000001e-6,1.31862e6
9.87424e-6,1.23462e6
9.88002e-6,1.15798e6
9.885809999999998e-6,1.088e6
9.89159e-6,1.0240199999999999e6
9.89738e-6,965452.0
9.90316e-6,911746.0
9.908950000000001e-6,862421.0
9.91618e-6,806265.0
9.92268e-6,760374.0
9.929189999999999e-6,718389.0
9.9357e-6,679889.0
9.942209999999998e-6,644506.0
9.949889999999999e-6,606319.0
9.956569999999998e-6,575894.0
9.96659e-6,534546.0
9.976610000000001e-6,497681.00000000006
9.98664e-6,464668.0
9.99666e-6,434981.0
1.0005e-5,412373.0
1.00151e-5,387542.0
1.0025200000000002e-5,364998.0
1.0035300000000002e-5,344464.0
1.00454e-5,325706.0
1.00555e-5,308520.0
1.0065599999999999e-5,292735.0
1.00757e-5,278200.0
1.0087299999999999e-5,262929.0
1.01003e-5,247276.0
1.0113300000000002e-5,233068.0
1.01263e-5,220129.99999999997
1.0139300000000001e-5,208314.00000000003
1.0152300000000001e-5,197493.0
1.01653e-5,187557.0
1.0178400000000002e-5,178410.0
1.01921e-5,169522.0
1.02066e-5,160925.0
1.0221000000000001e-5,153023.0
1.0242700000000001e-5,142317.0
1.0264400000000001e-5,132802.0
1.0286100000000001e-5,124306.99999999999
1.0309600000000002e-5,116076.0
1.0327800000000001e-5,110335.0
1.0346e-5,105061.0
1.0373200000000001e-5,97916.6
1.04005e-5,91568.2
1.04277e-5,85902.2
1.0455100000000001e-5,80802.3
1.04827e-5,76176.4
1.05103e-5,72004.8
1.0538000000000001e-5,68228.09999999999
1.0565600000000001e-5,64796.5
1.05932e-5,61668.6
1.06306e-5,57860.899999999994
1.0668e-5,54472.8
1.07053e-5,51444.200000000004
1.0742700000000001e-5,48725.50000000001
1.0780600000000001e-5,46242.299999999996
1.08185e-5,43999.1
1.08564e-5,41965.399999999994
1.08943e-5,40115.5
1.0951900000000003e-5,37605.8
1.1009500000000002e-5,35408.200000000004
1.1067400000000002e-5,33463.7
1.1125900000000001e-5,31726.899999999998
1.11843e-5,30182.899999999998
1.1243300000000001e-5,28792.0
1.1282900000000002e-5,27943.1
1.13619e-5,26415.899999999998
1.1442000000000002e-5,25061.9
1.1522200000000001e-5,23873.000000000004
1.1603500000000002e-5,22809.499999999996
1.16847e-5,21867.0
1.1767200000000001e-5,21016.0
1.1891400000000001e-5,19899.8
1.2016800000000002e-5,18939.2
1.2143900000000002e-5,18102.2
1.2272300000000001e-5,17371.2
1.2401800000000002e-5,16728.6
1.2532600000000001e-5,16160.2
1.27094e-5,15496.5
1.28887e-5,14924.699999999999
1.3070500000000001e-5,14424.699999999999
1.3254900000000002e-5,13985.8
1.35368e-5,13419.8
1.3823900000000002e-5,12944.3
1.4117800000000002e-5,12537.9
1.44173e-5,12188.2
1.4827e-5,11790.0
1.5248300000000001e-5,11453.5
1.57922e-5,11098.8
1.6470100000000003e-5,10746.800000000001
1.72973e-5,10408.800000000001
1.8294300000000002e-5,10091.300000000001
1.94853e-5,9795.54
2.0899100000000005e-5,9520.68
2.27318e-5,9242.1
2.5074000000000004e-5,8965.56
2.8047800000000003e-5,8690.84
3.1816800000000003e-5,8416.02
3.6858000000000005e-5,8120.91
4.48447e-5,7733.11
5.4947e-5,7261.09
6.15922e-5,6897.9
6.20932e-5,6886.89
6.25385e-5,6906.85
6.281690000000001e-5,6959.75
6.298390000000001e-5,7028.2
6.31231e-5,7129.25
6.32275e-5,7254.07
6.328730000000001e-5,7357.78
6.333740000000001e-5,7472.36
6.33875e-5,7623.78
6.34251e-5,7772.15
6.34627e-5,7963.860000000001
6.34933e-5,8165.699999999999
6.351620000000001e-5,8354.41
6.35392e-5,8586.09
6.356220000000001e-5,8874.41
6.357750000000001e-5,9106.960000000001
6.35921e-5,9366.25
6.3606e-5,9653.689999999999
6.36199e-5,9987.949999999999
6.36339e-5,10377.400000000001
6.36478e-5,10831.4
6.366170000000001e-5,11360.699999999999
6.36721e-5,11814.1
6.36826e-5,12321.800000000001
6.3693e-5,12889.5
6.37017e-5,13412.5
6.37121e-5,14105.2
6.37226e-5,14874.6
6.373300000000001e-5,15726.6
6.37434e-5,16666.7
6.37539e-5,17700.3
6.37643e-5,18831.899999999998
6.37748e-5,20065.300000000003
6.37849e-5,21357.2
6.379460000000001e-5,22698.5
6.38092e-5,24884.0
6.382450000000001e-5,27391.100000000002
6.38412e-5,30362.8
6.38579e-5,33549.2
6.38802e-5,38046.6
6.392470000000001e-5,47262.3
6.39414e-5,50522.299999999996
6.395810000000001e-5,53521.1
6.397480000000001e-5,56159.100000000006
6.39915e-5,58344.2
6.400660000000001e-5,59857.6
6.40216e-5,60894.1
6.403270000000001e-5,61335.2
6.40442e-5,61490.1
6.40572e-5,61294.700000000004
6.40684e-5,60818.6
6.40834e-5,59740.799999999996
6.40995e-5,58064.4
6.411620000000001e-5,55828.0
6.413290000000001e-5,53163.200000000004
6.41496e-5,50164.0
6.41663e-5,46929.600000000006
6.422200000000001e-5,35675.7
6.42387e-5,32472.4
6.42554e-5,29457.7
6.427180000000001e-5,26714.3
6.42824e-5,25074.5
6.4293e-5,23538.600000000002
6.430360000000001e-5,22108.0
6.431440000000001e-5,20749.0
6.43255e-5,19468.1
6.433670000000001e-5,18298.1
6.43478e-5,17234.3
6.43589e-5,16271.0
6.43701e-5,15402.0
6.43812e-5,14620.599999999999
6.439230000000001e-5,13919.900000000001
6.44049e-5,13219.6
6.441880000000001e-5,12539.499999999998
6.44327e-5,11950.199999999999
6.44466e-5,11440.2
6.44605e-5,10998.699999999999
6.44745e-5,10616.099999999999
6.44884e-5,10283.800000000001
6.45093e-5,9863.82
6.452600000000001e-5,9583.259999999998
6.4551e-5,9234.76
6.45761e-5,8953.31
6.460110000000001e-5,8722.26
6.46262e-5,8529.550000000001
6.46686e-5,8267.22
6.46944e-5,8137.47
6.47459e-5,7925.5199999999995
6.47974e-5,7759.7
6.484880000000002e-5,7626.509999999999
6.49184e-5,7483.44
6.50228e-5,7322.8
6.51272e-5,7204.379999999999
6.53046e-5,7061.13
6.54821e-5,6960.969999999999
6.57117e-5,6867.17
6.60457e-5,6769.9
6.64911e-5,6675.72
6.742920000000001e-5,6529.38
7.077240000000001e-5,6106.28
7.19975e-5,5981.110000000001
7.245070000000001e-5,5956.32
7.26773e-5,5952.88
7.306000000000001e-5,5968.15
7.344260000000001e-5,6024.13
7.369780000000001e-5,6096.4
7.395290000000001e-5,6211.31
7.41229e-5,6320.839999999999
7.4293e-5,6465.849999999999
7.44206e-5,6604.4400000000005
7.454810000000001e-5,6775.35
7.467570000000001e-5,6986.61
7.480330000000002e-5,7248.66
7.488830000000001e-5,7458.2300000000005
7.497330000000001e-5,7701.62
7.505840000000001e-5,7985.15
7.514770000000001e-5,8334.54
7.5237e-5,8747.949999999999
7.529650000000001e-5,9066.08
7.5356e-5,9424.289999999999
7.54155e-5,9828.92
7.547510000000001e-5,10287.5
7.553460000000001e-5,10809.0
7.55984e-5,11450.1
7.564090000000001e-5,11932.5
7.56834e-5,12465.699999999999
7.57259e-5,13056.300000000001
7.57684e-5,13712.3
7.581100000000001e-5,14443.0
7.58535e-5,15259.5
7.58896e-5,16030.599999999999
7.59343e-5,17096.0
7.59789e-5,18306.3
7.60087e-5,19206.6
7.603840000000001e-5,20192.100000000002
7.60682e-5,21273.7
7.6098e-5,22463.7
7.6133e-5,24025.699999999997
7.61633e-5,25534.1
7.619360000000001e-5,27213.3
7.622230000000001e-5,28985.5
7.624590000000001e-5,30594.0
7.627230000000001e-5,32575.3
7.629570000000001e-5,34518.4
7.63152e-5,36295.4
7.63408e-5,38850.1
7.636630000000001e-5,41713.3
7.638330000000001e-5,43819.2
7.640030000000001e-5,46104.1
7.642320000000001e-5,49511.700000000004
7.644490000000001e-5,53124.0
7.646660000000001e-5,57187.0
7.648360000000001e-5,60742.3
7.65006e-5,64674.7
7.651760000000001e-5,69042.9
7.653460000000001e-5,73918.3
7.654740000000001e-5,77959.0
7.65602e-5,82376.5
7.657290000000001e-5,87221.1
7.658570000000001e-5,92550.9
7.65984e-5,98433.9
7.661120000000002e-5,104949.0
7.662390000000001e-5,112186.00000000001
7.66367e-5,120251.0
7.66494e-5,129265.99999999999
7.66622e-5,139369.0
7.66707e-5,146787.0
7.66792e-5,154812.0
7.668770000000001e-5,163499.0
7.669620000000001e-5,172912.0
7.670470000000001e-5,183115.0
7.671320000000001e-5,194182.0
7.672170000000001e-5,206188.0
7.67302e-5,219214.99999999997
7.67387e-5,233348.00000000003
7.67472e-5,248681.00000000003
7.67557e-5,265309.0
7.676420000000001e-5,283333.0
