E(MeV),xs(mb)
1.0e-11,97838.8
1.03223e-11,96321.6
1.06549e-11,94829.3
1.0998399999999998e-11,93360.1
1.13527e-11,91915.0
1.1718599999999999e-11,90492.5
1.2096199999999998e-11,89093.2
1.24861e-11,87715.8
1.2888399999999999e-11,86361.00000000001
1.3303799999999998e-11,85027.4
1.37325e-11,83715.6
1.41751e-11,82424.40000000001
1.4631799999999997e-11,81154.4
1.51034e-11,79904.3
1.5590099999999998e-11,78674.7
1.6092599999999998e-11,77464.5
1.66111e-11,76274.2
1.71465e-11,75102.59999999999
1.7699e-11,73950.2
1.8269399999999998e-11,72816.09999999999
1.88581e-11,71700.6
1.94659e-11,70602.7
2.00931e-11,69523.0
2.0740699999999998e-11,68460.3
2.1408999999999998e-11,67415.2
2.2099099999999997e-11,66386.7
2.28111e-11,65375.1
2.3546399999999998e-11,64379.7
2.4305099999999997e-11,63400.600000000006
2.50884e-11,62437.3
2.5896799999999997e-11,61489.799999999996
2.67315e-11,60557.5
2.75928e-11,59640.700000000004
2.8482199999999998e-11,58738.6
2.93999e-11,57851.4
3.0347499999999995e-11,56978.5
3.13253e-11,56120.1
3.2335e-11,55275.5
3.33769e-11,54445.0
3.44526e-11,53627.9
3.55627e-11,52824.4
3.67089e-11,52034.0
3.7891799999999997e-11,51256.8
3.9113e-11,50492.2
4.0373400000000003e-11,49740.399999999994
4.1674599999999996e-11,49000.8
4.3017399999999996e-11,48273.700000000004
4.440389999999999e-11,47558.5
4.58347e-11,46855.200000000004
4.7311899999999994e-11,46163.600000000006
4.883639999999999e-11,45483.6
5.0410399999999995e-11,44814.7
5.20348e-11,44157.200000000004
5.37119e-11,43510.5
5.54426e-11,42874.8
5.7229499999999995e-11,42249.7
5.907359999999999e-11,41635.1
6.09775e-11,41030.8
6.29424e-11,40436.8
6.497099999999999e-11,39852.6
6.70645e-11,39278.5
6.9226e-11,38714.0
7.145659999999999e-11,38159.1
7.37596e-11,37613.6
7.62978e-11,37042.0
7.89233e-11,36480.700000000004
8.163909999999999e-11,35929.700000000004
8.444839999999998e-11,35388.799999999996
8.73544e-11,34857.7
9.03604e-11,34336.4
9.34698e-11,33824.6
9.66862e-11,33322.2
1.0001400000000001e-10,32829.1
1.03455e-10,32345.0
1.0701499999999999e-10,31870.0
1.1069800000000001e-10,31403.699999999997
1.1450700000000001e-10,30946.1
1.18447e-10,30497.0
1.22523e-10,30056.2
1.26739e-10,29623.7
1.31101e-10,29199.3
1.35612e-10,28782.800000000003
1.40278e-10,28374.199999999997
1.45106e-10,27973.2
1.5009900000000002e-10,27579.8
1.55264e-10,27193.800000000003
1.6060700000000003e-10,26815.1
1.66133e-10,26443.6
1.7185e-10,26079.1
1.7776400000000002e-10,25721.5
1.8388100000000002e-10,25370.8
1.9020800000000002e-10,25026.7
1.96754e-10,24689.199999999997
2.03524e-10,24358.1
2.10528e-10,24033.3
2.18232e-10,23695.2
2.26221e-10,23363.800000000003
2.34499e-10,23039.2
2.43083e-10,22721.2
2.51979e-10,22409.8
2.61203e-10,22104.6
2.70762e-10,21805.8
2.80673e-10,21513.0
2.90945e-10,21226.3
3.0159500000000003e-10,20945.399999999998
3.1263200000000005e-10,20670.3
3.24076e-10,20400.800000000003
3.3593600000000005e-10,20136.8
3.48233e-10,19878.2
3.60977e-10,19625.0
3.74191e-10,19376.899999999998
3.87885e-10,19133.899999999998
4.02933e-10,18882.0
4.18565e-10,18635.600000000002
4.3480299999999996e-10,18394.5
4.51671e-10,18158.6
4.69194e-10,17927.9
4.873960000000001e-10,17702.100000000002
5.063049999999999e-10,17481.100000000002
5.25947e-10,17264.9
5.463510000000001e-10,17053.4
5.67547e-10,16846.399999999998
5.89565e-10,16643.8
6.13735e-10,16434.7
6.388930000000001e-10,16230.4
6.650850000000001e-10,16030.599999999999
6.92348e-10,15835.300000000001
7.207320000000001e-10,15644.3
7.50275e-10,15457.7
7.810340000000001e-10,15275.2
8.13049e-10,15096.9
8.46382e-10,14922.4
8.829430000000001e-10,14743.0
9.210839999999999e-10,14567.8
9.60873e-10,14396.7
1.0023800000000002e-9,14229.5
1.04568e-9,14066.300000000001
1.0908500000000002e-9,13906.8
1.13797e-9,13751.0
1.18713e-9,13598.8
1.2410300000000002e-9,13442.8
1.2973800000000001e-9,13290.5
1.35629e-9,13141.9
1.41787e-9,12996.9
1.4822500000000001e-9,12855.4
1.5495600000000002e-9,12717.300000000001
1.61991e-9,12582.4
1.69705e-9,12444.699999999999
1.7778600000000001e-9,12310.300000000001
1.86252e-9,12179.3
1.9512100000000003e-9,12051.6
2.04412e-9,11927.000000000002
2.14146e-9,11805.6
2.2481900000000003e-9,11681.8
2.36022e-9,11561.2
2.47785e-9,11443.8
2.60133e-9,11329.400000000001
2.7309800000000004e-9,11217.900000000001
2.87315e-9,11104.6
3.02272e-9,10994.4
3.18008e-9,10887.1
3.34563e-9,10782.6
3.5272400000000003e-9,10676.8
3.71872e-9,10573.9
3.92059e-9,10473.9
4.13343e-9,10376.6
4.3578e-9,10282.0
4.604090000000001e-9,10186.3
4.8643e-9,10093.5
5.1392100000000005e-9,10003.2
5.44117e-9,9912.23
5.76085e-9,9823.94
6.099330000000001e-9,9738.25
6.4576700000000005e-9,9655.099999999999
6.85155e-9,9571.44
7.26946e-9,9490.33
7.712860000000001e-9,9411.69
8.200640000000001e-9,9332.76
8.71923e-9,9256.31
9.27066e-9,9182.26
9.877800000000002e-9,9108.11
1.05247e-8,9036.36
1.12377e-8,8964.66
1.1999e-8,8895.36
1.28119e-8,8828.369999999999
1.3708800000000001e-8,8761.55
1.46685e-8,8697.03
1.5728700000000002e-8,8632.8
1.68654e-8,8570.84
1.81225e-8,8509.28
1.94734e-8,8449.960000000001
2.09693e-8,8391.15
2.258e-8,8334.54
2.4365999999999998e-8,8278.51
2.52522e-8,8252.96
2.5299999999999998e-8,8251.62
2.7359e-8,8197.31
2.9648e-8,8143.750000000001
3.21286e-8,8092.349999999999
3.4890400000000005e-8,8041.73
3.79699e-8,7991.990000000001
4.13211e-8,7944.36
4.50634e-8,7897.63
4.92486e-8,7851.84
5.3936300000000004e-8,7807.05
5.91953e-8,7763.3
6.51048e-8,7720.65
7.17556e-8,7679.12
7.92531e-8,7638.76
8.771940000000001e-8,7599.599999999999
9.7296e-8,7561.650000000001
1.0814600000000001e-7,7524.89
1.20716e-7,7488.7
1.3503099999999999e-7,7453.820000000001
1.51364e-7,7420.26
1.70392e-7,7387.43
1.92625e-7,7355.45
2.1821999999999998e-7,7324.860000000001
2.48263e-7,7295.18
2.8363999999999996e-7,7266.48
3.2543e-7,7238.81
3.74961e-7,7212.23
4.3478000000000003e-7,7186.37
5.06278e-7,7161.6900000000005
5.93283e-7,7137.88
6.99667e-7,7115.02
8.32136e-7,7092.91
9.959849999999999e-7,7071.87
1.30441e-6,7043.53
2.26847e-6,6995.48
4.97111e-6,6944.05
1.3162000000000002e-5,6894.16
4.77614e-5,6815.7
0.00036869900000000006,6304.700000000001
0.000511584,6035.67
0.000622,5785.1900000000005
0.0007055850000000001,5556.48
0.0007740000000000001,5333.610000000001
0.0008310000000000001,5113.1900000000005
0.0008785,4897.280000000001
0.0009212500000000001,4669.780000000001
0.0009545,4465.5199999999995
0.0009830000000000001,4266.099999999999
0.0010115,4039.2200000000003
0.00103525,3824.17
0.0010542499999999998,3632.4100000000003
0.00107325,3419.72
0.0010898799999999999,3214.39
0.0011065,2987.27
0.00112075,2773.17
0.001135,2539.07
0.0011468700000000001,2327.02
0.00115875,2099.07
0.00116825,1904.37
0.0011777500000000002,1698.9399999999998
0.00118725,1483.55
0.00119912,1203.51
0.0012121900000000001,891.8870000000001
0.00121812,755.226
0.0012216899999999999,677.136
0.00122525,603.293
0.00122762,557.2370000000001
0.00123,514.395
0.00123178,484.83299999999997
0.00123356,457.787
0.0012352700000000001,434.499
0.0012368300000000002,415.90999999999997
0.00123839,400.15999999999997
0.0012398700000000001,388.105
0.00124132,379.415
0.0012422800000000001,375.501
0.00124343,372.966
0.0012441,372.627
0.0012451,373.801
0.00124599,376.648
0.0012469,381.426
0.0012479400000000001,389.372
0.00124893,399.51599999999996
0.00124989,412.139
0.00125097,429.581
0.00125197,449.25600000000003
0.00125271,466.12
0.00125345,485.065
0.00125446,514.15
0.0012554600000000001,547.539
0.00125613,572.361
0.0012569600000000001,606.304
0.00125779,643.8480000000001
0.00125862,685.25
0.00125945,730.732
0.0012604,788.0219999999999
0.00126135,851.445
0.0012623,921.513
0.00126325,998.7539999999999
0.0012640499999999999,1069.9
0.00126485,1146.8899999999999
0.0012656499999999999,1230.1200000000001
0.0012664599999999999,1320.03
0.00126726,1417.08
0.0012680599999999999,1521.77
0.0012688600000000001,1634.64
0.00126966,1756.25
0.00127046,1887.25
0.00127127,2028.3000000000002
0.0012720700000000001,2180.1400000000003
0.00127287,2343.5800000000004
0.0012736700000000002,2519.46
0.00127447,2708.73
0.00127527,2912.42
0.0012760800000000002,3131.62
0.00127688,3367.58
0.00127768,3621.5899999999997
0.00127848,3895.1099999999997
0.00127928,4189.73
0.00128008,4507.18
0.00128088,4849.370000000001
0.00128169,5218.4
0.0012824899999999998,5616.570000000001
0.00128329,6046.42
0.0012840899999999999,6510.7699999999995
0.0012848900000000001,7012.71
0.00128569,7555.6900000000005
0.0012865,8143.52
0.0012873000000000001,8780.46
0.0012881000000000001,9471.220000000001
0.0012889,10221.1
0.0012897000000000002,11036.0
0.0012905,11922.5
0.0012913,12888.1
0.0012921100000000002,13941.1
0.00129291,15091.1
0.00129371,16348.7
0.00129451,17726.0
0.00129531,19236.899999999998
0.00129611,20897.199999999997
0.00129692,22724.899999999998
0.00129769,24662.5
0.0012984000000000001,26624.4
0.00129911,28772.1
0.00129983,31127.699999999997
0.00130054,33716.0
0.00130125,36565.9
0.00130189,39381.6
0.00130253,42462.5
0.00130317,45839.0
0.00130382,49549.6
0.00130446,53638.8
0.00130498,57281.1
0.0013056,61985.4
0.00130606,65830.2
0.00130652,69977.8
0.00130699,74459.09999999999
0.00130738,78535.6
0.00130785,83860.7
0.0013083300000000001,89648.7
0.0013088,95950.4
0.0013092800000000001,102824.0
0.00130975,110334.0
0.0013102300000000001,118557.0
0.0013107,127576.0
0.0013111800000000001,137491.0
0.00131165,148412.0
0.0013121300000000001,160469.0
0.0013124800000000002,170345.0
0.00131284,181014.0
0.0013132,192555.0
0.00131355,205056.0
0.00131391,218615.0
0.00131426,233343.0
0.0013146199999999999,249363.0
0.00131498,266812.0
0.0013153300000000002,285844.0
0.00131569,306630.0
0.00131605,329364.0
0.0013164000000000001,354256.0
0.00131676,381544.0
0.0013171200000000002,411489.0
0.0013174699999999998,444378.0
0.00131783,480518.99999999994
0.00131818,520249.99999999994
0.00131854,563921.0
0.0013189,611904.0
0.0013192500000000001,664559.0
0.00131961,722234.0
0.00131996,785229.0
0.00132032,853766.0000000001
0.00132068,927929.0
0.00132103,1.0076099999999999e6
0.00132151,1.12174e6
0.0013221,1.27419e6
0.0013229900000000002,1.50754e6
0.00132339,1.60332e6
0.00132374,1.6817e6
0.0013241000000000001,1.74835e6
0.00132433,1.78474e6
0.00132464,1.82048e6
0.00132494,1.84295e6
0.0013252,1.85108e6
0.00132529,1.85155e6
0.00132558,1.84478e6
0.00132587,1.82544e6
0.00132617,1.79449e6
0.00132646,1.75331e6
0.00132685,1.68532e6
0.00132724,1.60619e6
0.0013278300000000001,1.47525e6
0.0013288500000000001,1.24277e6
0.00132942,1.12037e6
0.0013298399999999999,1.0351600000000001e6
0.0013302700000000002,956242.0
0.0013307,883757.0
0.00133103,831733.0
0.0013313600000000002,783368.0
0.0013317000000000001,738478.0
0.00133203,696860.0
0.00133236,658293.0
0.0013327,622563.0
0.00133303,589457.0
0.0013333600000000002,558771.0
0.00133374,526416.0
0.00133412,496702.0
0.0013345,469383.0
0.00133488,444234.0
0.00133526,421049.99999999994
0.00133564,399649.0
0.00133621,370533.0
0.00133664,350787.0
0.00133711,330707.0
0.00133759,312374.0
0.00133806,295600.0
0.00133854,280218.0
0.00133901,266081.0
0.00133949,253062.0
0.0013402000000000002,235386.0
0.00134093,219277.0
0.0013416600000000002,204913.0
0.00134239,192052.0
0.0013431200000000002,180494.0
0.00134385,170073.0
0.00134465,159851.0
0.00134548,150273.0
0.0013463000000000001,141625.0
0.00134713,133808.0
0.00134796,126723.00000000001
0.00134882,120012.99999999999
0.0013497600000000002,113445.0
0.0013506899999999999,107493.0
0.0013516300000000001,102071.0
0.00135288,95573.09999999999
0.00135409,89925.8
0.0013552800000000002,84983.79999999999
0.00135647,80525.8
0.0013576600000000001,76488.7
0.00135884,72819.4
0.0013600300000000001,69472.8
0.00136181,64976.3
0.00136359,61015.2
0.00136538,57504.4
0.0013671599999999999,54375.4
0.0013689400000000001,51572.5
0.00137072,49049.899999999994
0.0013725,46769.7
0.00137464,44309.399999999994
0.00137677,42116.8
0.0013782000000000002,40774.100000000006
0.0013808100000000001,38536.2
0.00138343,36551.4
0.00138598,34820.3
0.00138853,33263.4
0.0013912,31795.9
0.00139387,30469.1
0.00139788,28706.6
0.00140085,27549.899999999998
0.00140412,26402.800000000003
0.00140813,25142.699999999997
0.00141288,23832.100000000002
0.00141762,22684.8
0.0014223699999999998,21672.8
0.00142712,20774.1
0.0014318800000000002,19971.2
0.0014390000000000002,18916.0
0.0014461200000000002,18007.6
0.00145325,17217.7
0.00146038,16528.4
0.00146987,15726.800000000001
0.00147937,15038.7
0.00148888,14441.800000000001
0.0015007500000000001,13797.3
0.0015149999999999999,13144.6
0.00152925,12592.8
0.0015458700000000002,12048.300000000001
0.00156488,11525.4
0.0015815,11135.5
0.0016005000000000001,10751.0
0.00162425,10342.1
0.001648,9992.369999999999
0.0016765,9635.25
0.0017097500000000001,9282.92
0.0017525,8902.630000000001
0.0018000000000000002,8549.17
0.001857,8189.450000000001
0.001935,7768.12
0.002085,7055.3
0.0021850000000000003,6569.99
0.0022475,6230.32
0.0022975,5921.599999999999
0.002335,5658.389999999999
0.0023725,5357.78
0.00240375,5069.5199999999995
0.00242875,4806.8
0.0024506199999999997,4547.450000000001
0.00246938,4298.8099999999995
0.002485,4069.66
0.00250063,3816.2400000000002
0.0025131299999999997,3594.0699999999997
0.00252563,3352.0099999999998
0.0025381300000000004,3087.54
0.0025475,2873.58
0.00255687,2643.83
0.0025662500000000004,2397.9300000000003
0.00257562,2135.29
0.002585,1855.9699999999998
0.0025943800000000003,1561.48
0.00260688,1153.0
0.0026143900000000003,907.583
0.00261879,769.178
0.00262143,689.569
0.00262406,613.563
0.00262578,566.514
0.0026275,522.011
0.0026292200000000003,480.38800000000003
0.00263094,442.14900000000006
0.0026324399999999998,411.85400000000004
0.0026335700000000004,391.395
0.0026347000000000002,373.112
0.00263583,357.202
0.0026369500000000003,343.894
0.0026379800000000003,334.291
0.002639,327.298
0.00263998,323.278
0.00264086,322.053
0.0026417199999999997,323.224
0.0026425000000000003,326.472
0.0026432400000000003,331.619
0.00264402,339.35499999999996
0.0026446900000000003,347.921
0.0026453099999999997,357.757
0.0026459,368.626
0.0026464500000000003,380.283
0.00264715,397.535
0.00264789,418.672
0.0026484800000000004,437.615
0.00264906,458.664
0.00264977,486.85799999999995
0.00265047,518.437
0.00265117,553.6179999999999
0.00265187,592.635
0.00265246,628.263
0.00265305,666.883
0.00265363,708.657
0.00265422,753.757
0.0026547999999999997,802.367
0.00265539,854.678
0.00265598,910.8969999999999
0.0026565599999999997,971.2389999999999
0.0026573400000000002,1058.52
0.00265813,1154.1399999999999
0.00265883,1247.9199999999998
0.0026595300000000002,1349.53
0.00266023,1459.44
0.00266094,1578.19
0.00266164,1706.4299999999998
0.00266234,1844.8700000000001
0.00266305,1994.27
0.00266375,2155.42
0.00266445,2329.19
0.00266516,2516.52
0.00266586,2718.4300000000003
0.00266656,2936.03
0.00266727,3170.5299999999997
0.00266797,3423.25
0.00266867,3695.63
0.00266937,3989.23
0.00267008,4305.7699999999995
0.00267078,4647.13
0.00267148,5015.360000000001
0.00267219,5412.73
0.0026728900000000002,5841.71
0.00267359,6305.049999999999
0.0026743,6805.75
0.002675,7347.13
0.0026757,7932.87
0.00267641,8566.86
0.00267711,9253.42
0.00267781,9997.63
0.0026785199999999998,10805.6
0.00267922,11683.6
0.00267992,12638.6
0.00268063,13678.2
0.0026812999999999997,14771.9
0.00268198,15961.9
0.00268266,17258.2
0.0026833399999999998,18671.8
0.00268402,20215.6
0.0026847200000000002,21943.899999999998
0.00268542,23861.4
0.0026861199999999997,25970.6
0.0026868300000000003,28295.8
0.00268753,30863.9
0.00268822,33639.0
0.0026888700000000003,36561.9
0.00268953,39785.9
0.00269019,43348.8
0.00269062,45933.799999999996
0.00269106,48703.3
0.00269169,53011.9
0.00269225,57283.200000000004
0.0026928100000000003,61973.0
0.00269338,67131.1
0.00269394,72814.9
0.0026945000000000003,79089.3
0.0026950200000000002,85423.50000000001
0.0026955300000000002,92380.9
0.00269605,100034.0
0.0026965599999999998,108464.0
0.00269708,117768.0
0.0026975600000000003,127404.0
0.00269803,137655.0
0.0026985000000000004,148923.0
0.00269897,161321.0
0.00269944,174974.0
0.00269989,189497.0
0.00270031,204313.0
0.00270073,220502.00000000003
0.0027011599999999998,238193.0
0.00270158,257524.0
0.002702,278635.0
0.00270242,301672.0
0.00270284,326772.0
0.00270327,354065.0
0.00270369,383657.0
0.00270411,415618.99999999994
0.00270453,449957.00000000006
0.0027049500000000002,486601.0
0.00270552,538737.0
0.00270622,608081.0
0.00270756,743857.0
0.00270799,783976.0
0.00270841,820750.0
0.00270884,852943.9999999999
0.0027092600000000002,879410.0
0.0027096900000000003,899188.0
0.00271007,910605.0
0.0027104,915603.0
0.0027105600000000003,916334.0
0.00271093,913810.9999999999
0.0027113000000000003,905799.0
0.0027116600000000003,892709.9999999999
0.00271203,875100.0
0.00271258,841658.0
0.0027131300000000002,801938.0
0.00271394,737408.0
0.00271525,629014.0
0.00271591,577713.0
0.00271656,529865.0
0.0027172200000000002,485935.0
0.0027178700000000003,446031.0
0.00271853,410032.99999999994
0.0027189700000000002,388086.0
0.00271962,358019.0
0.00272028,331086.0
0.0027207499999999996,313585.0
0.00272125,296367.0
0.00272175,280516.0
0.00272225,265911.0
0.00272275,252439.0
0.0027235000000000002,234132.0
0.00272425,217836.0
0.0027248100000000003,206772.0
0.00272544,195509.0
0.0027260599999999998,185217.0
0.00272669,175792.0
0.00272731,167141.0
0.00272825,155443.0
0.0027291900000000003,145075.0
0.00273013,135846.0
0.00273106,127594.99999999999
0.002732,120188.99999999999
0.00273294,113515.00000000001
0.00273388,107481.0
0.0027349,101512.0
0.00273611,95242.1
0.00273732,89645.9
0.00273852,84626.90000000001
0.00273973,80117.3
0.0027409400000000003,76048.40000000001
0.0027421700000000004,72297.8
0.0027434,68896.2
0.00274504,64815.3
0.00274668,61188.6
0.00274828,58023.2
0.00274984,55241.9
0.00275141,52723.3
0.00275297,50433.899999999994
0.0027553100000000004,47368.7
0.00275766,44678.4
0.00276,42301.399999999994
0.0027623400000000003,40188.3
0.0027646899999999998,38299.5
0.00276625,37148.6
0.0027693699999999997,35070.700000000004
0.0027725000000000002,33247.7
0.00277531,31789.6
0.00277812,30483.699999999997
0.00278172,28990.8
0.00278516,27722.2
0.00278855,26601.6
0.00279359,25141.6
0.00279887,23825.2
0.00280414,22684.199999999997
0.0028098000000000003,21617.600000000002
0.00281625,20566.8
0.0028225,19681.9
0.00282875,18905.5
0.002835,18219.2
0.00284438,17327.8
0.00285375,16570.5
0.00286255,15966.6
0.00286613,15770.699999999999
0.0028671700000000005,15741.0
0.00286799,15771.699999999999
0.0028684500000000003,15877.4
0.00286871,16009.500000000002
0.00286896,16232.9
0.00286913,16450.899999999998
0.0028693399999999997,16806.399999999998
0.00286955,17271.8
0.00286975,17820.7
0.00287008,18872.4
0.00287037,19820.4
0.00287054,20273.4
0.0028707,20617.0
0.00287084,20795.0
0.002871,20864.899999999998
0.00287113,20809.3
0.00287127,20637.8
0.0028714300000000003,20300.600000000002
0.0028716,19847.3
0.00287188,18911.5
0.0028721800000000002,17889.3
0.00287237,17333.0
0.00287258,16801.5
0.00287278,16380.8
0.00287302,16031.800000000001
0.00287325,15791.5
0.0028734000000000003,15677.7
0.0028737800000000003,15503.499999999998
0.0028741599999999997,15411.999999999998
0.00287521,15296.7
0.00287696,15227.3
0.00287774,15261.7
0.00287823,15372.4
0.00287852,15530.699999999999
0.00287872,15707.1
0.0028789099999999997,15966.400000000001
0.00287907,16250.800000000001
0.0028792300000000004,16617.4
0.00287938,17076.100000000002
0.00287954,17631.9
0.0028797000000000002,18281.7
0.0028799100000000003,19301.1
0.00288028,21190.600000000002
0.00288045,21959.5
0.00288062,22589.899999999998
0.00288074,22936.800000000003
0.00288087,23157.0
0.002881,23230.6
0.00288112,23158.4
0.00288124,22948.4
0.00288137,22604.7
0.00288153,21974.300000000003
0.0028817,21199.4
0.00288221,18587.100000000002
0.00288237,17870.399999999998
0.00288252,17241.0
0.0028826800000000003,16707.9
0.00288284,16270.500000000002
0.00288299,15921.7
0.00288314,15667.0
0.00288332,15421.0
0.0028836,15177.9
0.00288379,15073.0
0.0028842200000000003,14927.6
0.0028846500000000003,14847.4
0.00288601,14710.7
0.00289039,14461.5
0.00289935,14072.9
0.00290496,13878.1
0.00290647,13852.9
0.00290735,13867.3
