E(MeV),xs(mb)
1.0e-11,4.91035e7
1.03223e-11,4.83307e7
1.06549e-11,4.757049999999999e7
1.0998399999999998e-11,4.68219e7
1.13527e-11,4.60854e7
1.1718599999999999e-11,4.53602e7
1.2096199999999998e-11,4.46466e7
1.24861e-11,4.39441e7
1.2888399999999999e-11,4.32528e7
1.3303799999999998e-11,4.25722e7
1.37325e-11,4.19025e7
1.41751e-11,4.12431e7
1.4631799999999997e-11,4.059440000000001e7
1.51034e-11,3.99556e7
1.5590099999999998e-11,3.93271e7
1.6092599999999998e-11,3.87082e7
1.66111e-11,3.80993e7
1.71465e-11,3.74998e7
1.7699e-11,3.69099e7
1.8269399999999998e-11,3.63291e7
1.88581e-11,3.57577e7
1.94659e-11,3.5195e7
2.00931e-11,3.46414e7
2.0740699999999998e-11,3.40963e7
2.1408999999999998e-11,3.35599e7
2.2099099999999997e-11,3.30319e7
2.28111e-11,3.25122e7
2.3546399999999998e-11,3.2000700000000004e7
2.4305099999999997e-11,3.14973e7
2.50884e-11,3.10017e7
2.5896799999999997e-11,3.0514e7
2.67315e-11,3.00339e7
2.75928e-11,2.95614e7
2.8482199999999998e-11,2.90963e7
2.93999e-11,2.86386e7
3.0347499999999995e-11,2.8188e7
3.13253e-11,2.77446e7
3.2335e-11,2.7308e7
3.33769e-11,2.68785e7
3.44526e-11,2.64555e7
3.55627e-11,2.60394e7
3.67089e-11,2.56297e7
3.7891799999999997e-11,2.52265e7
3.9113e-11,2.48296e7
4.0373400000000003e-11,2.4439e7
4.1674599999999996e-11,2.40545e7
4.3017399999999996e-11,2.36761e7
4.440389999999999e-11,2.3303600000000004e7
4.58347e-11,2.2937e7
4.7311899999999994e-11,2.25762e7
4.883639999999999e-11,2.2221e7
5.0410399999999995e-11,2.18714e7
5.20348e-11,2.15274e7
5.37119e-11,2.1188699999999996e7
5.54426e-11,2.08554e7
5.7229499999999995e-11,2.05273e7
5.907359999999999e-11,2.0204399999999996e7
6.09775e-11,1.98865e7
6.29424e-11,1.95737e7
6.497099999999999e-11,1.92658e7
6.70645e-11,1.89627e7
6.9226e-11,1.86644e7
7.145659999999999e-11,1.83708e7
7.37596e-11,1.80818e7
7.61364e-11,1.77974e7
7.85902e-11,1.75174e7
8.11227e-11,1.72419e7
8.37372e-11,1.69706e7
8.643549999999999e-11,1.67037e7
8.922119999999998e-11,1.64409e7
9.209619999999999e-11,1.61823e7
9.506439999999999e-11,1.59277e7
9.81277e-11,1.56772e7
1.01291e-10,1.54305e7
1.04554e-10,1.51879e7
1.07924e-10,1.49489e7
1.11402e-10,1.47138e7
1.1499200000000001e-10,1.4482299999999998e7
1.1869700000000001e-10,1.42546e7
1.22523e-10,1.40303e7
1.26471e-10,1.38097e7
1.30547e-10,1.35924e7
1.34754e-10,1.3378699999999998e7
1.3909700000000002e-10,1.3168200000000002e7
1.43579e-10,1.2961100000000002e7
1.48207e-10,1.27572e7
1.52982e-10,1.25566e7
1.57913e-10,1.23591e7
1.6300100000000001e-10,1.21647e7
1.68254e-10,1.19734e7
1.73676e-10,1.17851e7
1.79274e-10,1.15997e7
1.8505000000000002e-10,1.14173e7
1.91014e-10,1.12377e7
1.97169e-10,1.1061e7
2.03524e-10,1.0887e7
2.1008200000000003e-10,1.07158e7
2.16853e-10,1.0547200000000002e7
2.2384e-10,1.03814e7
2.31055e-10,1.0218100000000002e7
2.385e-10,1.00574e7
2.46187e-10,9.89919e6
2.5412e-10,9.74353e6
2.6231e-10,9.59028e6
2.70762e-10,9.43947e6
2.7948900000000003e-10,9.291e6
2.88494e-10,9.14491e6
2.9779300000000004e-10,9.00107e6
3.07388e-10,8.85954e6
3.1729500000000004e-10,8.7202e6
3.27519e-10,8.58308e6
3.38075e-10,8.44808e6
3.4896900000000003e-10,8.315250000000001e6
3.6021600000000004e-10,8.184469999999999e6
3.7182300000000004e-10,8.05578e6
3.83807e-10,7.92908e6
3.96174e-10,7.8044e6
4.08943e-10,7.68166e6
4.2212e-10,7.56088e6
4.3572499999999996e-10,7.44196e6
4.4976500000000005e-10,7.32495e6
4.6426100000000007e-10,7.20975e6
4.79221e-10,7.09639e6
4.94666e-10,6.98478e6
5.10605e-10,6.87495e6
5.270620000000001e-10,6.76683e6
5.440450000000001e-10,6.66043e6
5.6158e-10,6.55568e6
5.796750000000001e-10,6.4526e6
5.98358e-10,6.35112e6
6.176389999999999e-10,6.25126e6
6.37545e-10,6.15295e6
6.58089e-10,6.0562e6
6.79298e-10,5.96095e6
7.01188e-10,5.86722e6
7.237860000000001e-10,5.77494e6
7.47109e-10,5.68413e6
7.71188e-10,5.59474e6
7.960380000000001e-10,5.50676e6
8.21693e-10,5.42015e6
8.48171e-10,5.33492e6
8.75507e-10,5.25101e6
9.037190000000002e-10,5.16844e6
9.32845e-10,5.08714e6
9.62904e-10,5.00714e6
9.93937e-10,4.92838e6
1.0259700000000001e-9,4.85088e6
1.05903e-9,4.77457e6
1.09316e-9,4.69948e6
1.12839e-9,4.62556e6
1.16475e-9,4.55281e6
1.2022900000000002e-9,4.48119e6
1.2410300000000002e-9,4.4107e6
1.28103e-9,4.34131e6
1.3223100000000002e-9,4.27303e6
1.36492e-9,4.2058e6
1.4089000000000002e-9,4.13964e6
1.4543100000000001e-9,4.0744999999999995e6
1.5011699999999999e-9,4.0103999999999995e6
1.5495600000000002e-9,3.9473e6
1.5994900000000002e-9,3.8852e6
1.6510400000000001e-9,3.82406e6
1.7042400000000001e-9,3.76389e6
1.75917e-9,3.70465e6
1.81585e-9,3.64635e6
1.87438e-9,3.58896e6
1.9347700000000003e-9,3.53248e6
1.99713e-9,3.47687e6
2.06148e-9,3.42214e6
2.1279200000000002e-9,3.36827e6
2.19649e-9,3.31525e6
2.26728e-9,3.26305e6
2.3403400000000002e-9,3.21167e6
2.4157700000000002e-9,3.1611e6
2.49362e-9,3.11132e6
2.5739800000000002e-9,3.06232e6
2.65692e-9,3.01409e6
2.7425500000000002e-9,2.96661e6
2.8309300000000003e-9,2.91988e6
2.92217e-9,2.87387e6
3.01633e-9,2.8286e6
3.11354e-9,2.78402e6
3.21387e-9,2.74015e6
3.3174500000000004e-9,2.69696e6
3.42435e-9,2.65445e6
3.53471e-9,2.6126e6
3.6486100000000003e-9,2.57141e6
3.7662000000000005e-9,2.53085e6
3.88757e-9,2.49094e6
4.01286e-9,2.45164e6
4.14217e-9,2.41297e6
4.2756600000000005e-9,2.37489e6
4.41344e-9,2.33742e6
4.55568e-9,2.30052e6
4.7024800000000005e-9,2.26421e6
4.85404e-9,2.22846e6
5.01045e-9,2.19327e6
5.17193e-9,2.15862e6
5.338590000000001e-9,2.12453e6
5.510650000000001e-9,2.09096e6
5.688220000000001e-9,2.0579100000000002e6
5.871540000000001e-9,2.0253800000000002e6
6.06075e-9,1.99336e6
6.256080000000001e-9,1.96184e6
6.4576700000000005e-9,1.93081e6
6.665790000000001e-9,1.90025e6
6.8805900000000005e-9,1.87018e6
7.1023400000000005e-9,1.84057e6
7.33121e-9,1.81143e6
7.56748e-9,1.78273e6
7.81133e-9,1.75449e6
8.06308e-9,1.72668e6
8.32291e-9,1.6993e6
8.59114e-9,1.67235e6
8.86798e-9,1.64582e6
9.15378e-9,1.6197e6
9.44875e-9,1.59399e6
9.753270000000001e-9,1.56867e6
1.0067600000000001e-8,1.54376e6
1.0392e-8,1.51922e6
1.07269e-8,1.49507e6
1.10726e-8,1.47129e6
1.1429400000000001e-8,1.44789e6
1.17978e-8,1.42484e6
1.21779e-8,1.40216e6
1.25704e-8,1.37982e6
1.29755e-8,1.35783e6
1.33937e-8,1.33618e6
1.3825300000000001e-8,1.31486e6
1.42708e-8,1.29387e6
1.4730700000000002e-8,1.27321e6
1.52054e-8,1.25287e6
1.56954e-8,1.23284e6
1.62012e-8,1.21312e6
1.67233e-8,1.1937e6
1.72623e-8,1.17459e6
1.78185e-8,1.15577e6
1.83928e-8,1.13724e6
1.89855e-8,1.119e6
1.9597400000000002e-8,1.10104e6
2.02289e-8,1.08336e6
2.0880800000000003e-8,1.06595e6
2.15537e-8,1.04882e6
2.2248299999999998e-8,1.0319400000000001e6
2.2965200000000002e-8,1.0153399999999999e6
2.37054e-8,998982.0
2.4469300000000002e-8,982884.0
2.52522e-8,967144.0
2.5299999999999998e-8,966207.0
2.61154e-8,950614.0
2.69569e-8,935263.9999999999
2.7825700000000004e-8,920149.9999999999
2.8722400000000002e-8,905273.0
2.9648e-8,890626.0
3.06034e-8,876207.9999999999
3.1589700000000004e-8,862015.0000000001
3.26077e-8,848046.0000000001
3.36586e-8,834294.0
3.47432e-8,820761.0000000001
3.58629e-8,807438.0
3.70185e-8,794326.0
3.8211599999999997e-8,781418.0
3.94429e-8,768715.0
4.07141e-8,756210.0
4.20261e-8,743904.0
4.33805e-8,731793.0
4.4778399999999994e-8,719877.0
4.622150000000001e-8,708152.0
4.7710999999999996e-8,696617.0
4.92486e-8,685267.0
5.0835600000000004e-8,674105.0
5.2474e-8,663124.0
5.41649e-8,652325.0
5.59105e-8,641704.0
5.77122e-8,631262.0
5.95722e-8,620995.0
6.149180000000001e-8,610903.0
6.33394e-8,601640.0
6.524250000000001e-8,592527.0
6.72027e-8,583562.0
6.92219e-8,574746.0
7.13017e-8,566079.0
7.3444e-8,557558.0
7.56507e-8,549183.0
7.79237e-8,540951.0
8.026500000000001e-8,532862.0
8.26766e-8,524916.0
8.516069999999999e-8,517113.0
8.771940000000001e-8,509453.0
9.035510000000001e-8,501938.0
9.30698e-8,494567.0
9.58662e-8,487340.0
9.874660000000001e-8,480259.00000000006
1.01714e-7,473323.0
1.0477e-7,466533.99999999994
1.0791699999999999e-7,459893.0
1.1115999999999998e-7,453401.00000000006
1.145e-7,447058.99999999994
1.1794e-7,440869.99999999994
1.2148399999999998e-7,434835.0
1.25134e-7,428956.0
1.28894e-7,423237.00000000006
1.32766e-7,417680.0
1.36755e-7,412289.0
1.4086399999999998e-7,407068.00000000006
1.4479e-7,402376.0
1.48825e-7,397837.0
1.52974e-7,393454.0
1.57237e-7,389231.0
1.6161899999999999e-7,385174.0
1.6612299999999998e-7,381291.0
1.70753e-7,377588.0
1.75512e-7,374073.0
1.80404e-7,370752.0
1.85431e-7,367634.0
1.90197e-7,364943.0
1.9508499999999998e-7,362441.0
2.0009800000000002e-7,360137.0
2.0524e-7,358042.0
2.10515e-7,356167.0
2.15925e-7,354525.0
2.21007e-7,353237.0
2.2620699999999998e-7,352169.0
2.31531e-7,351334.0
2.36978e-7,350748.0
2.4255599999999997e-7,350426.0
2.46016e-7,350368.0
2.51273e-7,350488.0
2.56643e-7,350869.0
2.62128e-7,351530.0
2.67165e-7,352381.0
2.72297e-7,353492.0
2.77529e-7,354882.0
2.8286099999999995e-7,356571.0
2.87686e-7,358342.0
2.92594e-7,360385.0
2.97586e-7,362719.0
3.0266299999999996e-7,365367.0
3.07177e-7,367960.0
3.11757e-7,370829.0
3.16406e-7,373993.0
3.21124e-7,377473.0
3.2591299999999996e-7,381295.0
3.3007399999999994e-7,384861.0
3.34289e-7,388713.0
3.38557e-7,392873.0
3.42879e-7,397361.0
3.47257e-7,402200.0
3.5094699999999997e-7,406520.0
3.54678e-7,411120.0
3.58447e-7,416015.0
3.62258e-7,421227.0
3.66107e-7,426774.0
3.69999e-7,432681.99999999994
3.73931e-7,438971.99999999994
3.77907e-7,445676.99999999994
3.81116e-7,451355.00000000006
3.84354e-7,457331.0
3.87618e-7,463624.0
3.9091099999999997e-7,470252.0
3.94231e-7,477236.99999999994
3.9758e-7,484600.99999999994
4.00957e-7,492368.0
4.0436199999999995e-7,500567.0
4.0779699999999996e-7,509224.00000000006
4.10391e-7,516035.0
4.13004e-7,523141.00000000006
4.15631e-7,530546.0
4.1827699999999993e-7,538278.0
4.20938e-7,546343.0
4.23618e-7,554771.0
4.2631199999999996e-7,563569.0
4.2902599999999997e-7,572771.0
4.31756e-7,582388.0
4.34504e-7,592456.0
4.37268e-7,602988.0
4.40052e-7,614027.0
4.42851e-7,625588.0
4.4566999999999994e-7,637721.0
4.48506e-7,650443.0
4.5136099999999996e-7,663812.0
4.5327400000000004e-7,673095.0
4.5519499999999997e-7,682693.0
4.57124e-7,692620.0
4.5906099999999996e-7,702890.0
4.6100599999999997e-7,713519.0
4.6295999999999996e-7,724524.0
4.6492199999999996e-7,735921.0
4.6689299999999994e-7,747729.0
4.68871e-7,759968.0
4.70858e-7,772659.0
4.7285399999999995e-7,785823.0
4.7485799999999995e-7,799484.0
4.7687e-7,813665.9999999999
4.788909999999999e-7,828397.0
4.80921e-7,843704.9999999999
4.829589999999999e-7,859619.0
4.85006e-7,876172.0
4.870609999999999e-7,893397.0
4.891250000000001e-7,911332.0
4.91198e-7,930015.0
4.9328e-7,949488.0
4.94847e-7,964636.0
4.96418e-7,980267.0000000001
4.97996e-7,996426.0
4.99578e-7,1.01311e6
5.011650000000001e-7,1.0303500000000001e6
5.02756e-7,1.04816e6
5.04354e-7,1.0666e6
5.05957e-7,1.08567e6
5.07564e-7,1.10539e6
5.09175e-7,1.1258e6
5.10794e-7,1.14696e6
5.12417e-7,1.16888e6
5.140439999999999e-7,1.19159e6
5.15676e-7,1.21513e6
5.17316e-7,1.23957e6
5.18959e-7,1.26493e6
5.206079999999999e-7,1.29126e6
5.22261e-7,1.31859e6
5.239209999999999e-7,1.34702e6
5.255849999999999e-7,1.37658e6
5.272549999999999e-7,1.40731e6
5.28929e-7,1.43928e6
5.306099999999999e-7,1.47261e6
5.32296e-7,1.50733e6
5.33421e-7,1.53125e6
5.34552e-7,1.55591e6
5.356819999999999e-7,1.58121e6
5.36817e-7,1.60731e6
5.37952e-7,1.6341e6
5.39092e-7,1.66174e6
5.40232e-7,1.69014e6
5.41377e-7,1.71945e6
5.42522e-7,1.74958e6
5.436709999999999e-7,1.78069e6
5.44821e-7,1.81269e6
5.45975e-7,1.84576e6
5.4713e-7,1.87979e6
5.48289e-7,1.91497e6
5.49449e-7,1.95119e6
5.506129999999999e-7,1.98866e6
5.51777e-7,2.0272700000000002e6
5.52946e-7,2.0672199999999998e6
5.541159999999999e-7,2.10842e6
5.5529e-7,2.15108e6
5.564639999999999e-7,2.19509e6
5.57643e-7,2.2407e6
5.588219999999999e-7,2.28777e6
5.60006e-7,2.33658e6
5.6119e-7,2.387e6
5.6238e-7,2.43931e6
5.63569e-7,2.49338e6
5.64763e-7,2.54951e6
5.65957e-7,2.60756e6
5.67156e-7,2.66786e6
5.68356e-7,2.73027e6
5.69259e-7,2.77871e6
5.70162e-7,2.82843e6
5.71067e-7,2.87955e6
5.719739999999999e-7,2.93218e6
5.72881e-7,2.98624e6
5.73791e-7,3.04191e6
5.747019999999999e-7,3.09918e6
5.75612e-7,3.15803e6
5.76527e-7,3.21876e6
5.77442e-7,3.28117e6
5.783579999999999e-7,3.34541e6
5.79277e-7,3.41165e6
5.801949999999999e-7,3.47975e6
5.81117e-7,3.54998e6
5.820389999999999e-7,3.6223e6
5.82962e-7,3.6967e6
5.838879999999999e-7,3.77354e6
5.84815e-7,3.8526e6
5.85743e-7,3.93405e6
5.866729999999999e-7,4.0180999999999995e6
5.87603e-7,4.10457e6
5.88536e-7,4.19381e6
5.89471e-7,4.28577e6
5.904049999999999e-7,4.38039e6
5.91343e-7,4.47818e6
5.92282e-7,4.5788e6
5.93221e-7,4.68248e6
5.941639999999999e-7,4.78945e6
5.95106e-7,4.8995e6
5.96051e-7,5.01303e6
5.96997e-7,5.12995e6
5.979429999999999e-7,5.25018e6
5.98894e-7,5.37431e6
5.99844e-7,5.5019e6
6.007959999999999e-7,5.63318e6
6.0175e-7,5.76843e6
6.02704e-7,5.9073e6
6.036609999999999e-7,6.05026e6
6.046199999999999e-7,6.19713e6
6.05578e-7,6.34775e6
6.0654e-7,6.50278e6
6.07503e-7,6.66159e6
6.08466e-7,6.82439e6
6.09433e-7,6.99141e6
6.103989999999999e-7,7.16213e6
6.11369e-7,7.33699e6
6.12339e-7,7.51568e6
6.1331e-7,7.69785e6
6.146089999999999e-7,7.947e6
6.159089999999999e-7,8.201779999999999e6
6.17214e-7,8.46287e6
6.18519e-7,8.72865e6
6.1983e-7,8.99966e6
6.211409999999999e-7,9.27404e6
6.23773e-7,9.83197e6
6.2708e-7,1.05354e7
6.29071e-7,1.09531e7
6.304039999999999e-7,1.12276e7
6.31737e-7,1.14961e7
6.330759999999999e-7,1.17584e7
6.3408e-7,1.19492e7
6.350869999999999e-7,1.2134799999999998e7
6.36095e-7,1.23143e7
6.37103e-7,1.24865e7
6.38116e-7,1.2651699999999998e7
6.39128e-7,1.28082e7
6.401419999999999e-7,1.29558e7
6.41159e-7,1.30939e7
6.421759999999999e-7,1.32215e7
6.431959999999999e-7,1.33384e7
6.44217e-7,1.34438e7
6.44897e-7,1.35073e7
6.4558e-7,1.35653e7
6.46263e-7,1.36178e7
6.46947e-7,1.36645e7
6.4763e-7,1.37052e7
6.483159999999999e-7,1.3740000000000002e7
6.49002e-7,1.3768800000000002e7
6.496889999999999e-7,1.37913e7
6.50375e-7,1.38076e7
6.5113e-7,1.38182e7
6.518500000000001e-7,1.38213e7
6.52655e-7,1.38165e7
6.53454e-7,1.38031e7
6.542159999999999e-7,1.37824e7
6.549789999999999e-7,1.3754e7
6.556729999999999e-7,1.37216e7
6.56367e-7,1.36829e7
6.57061e-7,1.3637999999999998e7
6.577549999999999e-7,1.35871e7
6.58452e-7,1.353e7
6.59149e-7,1.34669e7
6.59846e-7,1.33982e7
6.60543e-7,1.3323799999999998e7
6.61242e-7,1.32437e7
6.62292e-7,1.31135e7
6.63342e-7,1.2972e7
6.643959999999999e-7,1.2819100000000002e7
6.654499999999999e-7,1.2656e7
6.66506e-7,1.24833e7
6.67565e-7,1.23014e7
6.686229999999999e-7,1.2111400000000002e7
6.69685e-7,1.19137e7
6.70748e-7,1.17093e7
6.71811e-7,1.14991e7
6.73235e-7,1.1210199999999998e7
6.74659e-7,1.09142e7
6.76803e-7,1.0459099999999998e7
6.81831e-7,9.37666e6
6.83997e-7,8.91558e6
6.85444e-7,8.61209e6
6.868949999999999e-7,8.31296e6
6.88349e-7,8.019069999999999e6
6.89441e-7,7.80265e6
6.905359999999999e-7,7.58963e6
6.916319999999999e-7,7.38084e6
6.927299999999999e-7,7.17591e6
6.938299999999999e-7,6.97532e6
6.94929e-7,6.77947e6
6.96034e-7,6.58767e6
6.97138e-7,6.40082e6
6.98244e-7,6.21872e6
6.993529999999999e-7,6.04116e6
7.00462e-7,5.86866e6
7.01574e-7,5.70072e6
7.026879999999999e-7,5.53758e6
7.034309999999999e-7,5.4316e6
7.04175e-7,5.32759e6
7.04921e-7,5.22556e6
7.05666e-7,5.12569e6
7.064119999999999e-7,5.02797e6
7.071589999999999e-7,4.93215e6
7.07908e-7,4.83824e6
7.08657e-7,4.74639e6
7.09406e-7,4.65658e6
7.101559999999999e-7,4.56859e6
7.10908e-7,4.48239e6
7.1166e-7,4.39815e6
7.12412e-7,4.31582e6
7.13166e-7,4.23519e6
7.13921e-7,4.15625e6
7.146759999999999e-7,4.0791199999999995e6
7.15431e-7,4.0037700000000005e6
7.16188e-7,3.93001e6
7.169469999999999e-7,3.85781e6
7.17705e-7,3.78728e6
7.18463e-7,3.7184e6
7.19223e-7,3.65098e6
7.199849999999999e-7,3.58499e6
7.20747e-7,3.52054e6
7.21508e-7,3.4576e6
7.222719999999999e-7,3.396e6
7.230359999999999e-7,3.33571e6
7.23801e-7,3.27683e6
7.245659999999999e-7,3.21932e6
7.25332e-7,3.16304e6
7.261009999999999e-7,3.10794e6
7.26869e-7,3.05414e6
7.27637e-7,3.00158e6
7.284059999999999e-7,2.95013e6
7.29178e-7,2.89976e6
7.303349999999999e-7,2.82639e6
7.31493e-7,2.75544e6
7.32655e-7,2.68672e6
7.338169999999999e-7,2.62035e6
7.34982e-7,2.55605e6
7.361489999999999e-7,2.49384e6
7.37316e-7,2.43372e6
7.38488e-7,2.37538e6
7.3966e-7,2.31897e6
7.40833e-7,2.26437e6
7.420099999999999e-7,2.21141e6
7.43187e-7,2.1602e6
7.44367e-7,2.11052e6
7.45548e-7,2.06238e6
7.4673e-7,2.0158e6
7.479169999999999e-7,1.97052e6
7.49104e-7,1.92668e6
7.502919999999999e-7,1.88418e6
7.51484e-7,1.8429e6
7.52676e-7,1.80291e6
7.538709999999999e-7,1.76406e6
7.550679999999999e-7,1.72636e6
7.562639999999999e-7,1.68982e6
7.57466e-7,1.65424e6
7.58668e-7,1.61975e6
7.59872e-7,1.58625e6
7.61079e-7,1.55366e6
7.62286e-7,1.52204e6
7.63496e-7,1.49127e6
7.64708e-7,1.46137e6
7.6592e-7,1.43233e6
7.67138e-7,1.40402e6
7.68355e-7,1.37653e6
7.695739999999999e-7,1.34979e6
7.70796e-7,1.32374e6
7.72019e-7,1.29842e6
7.73244e-7,1.27375e6
7.744719999999999e-7,1.24973e6
7.756999999999999e-7,1.22638e6
7.76932e-7,1.20357e6
7.78165e-7,1.18139e6
7.793999999999999e-7,1.15979e6
7.80638e-7,1.13871e6
7.81876e-7,1.11819e6
7.83117e-7,1.09817e6
7.8436e-7,1.07865e6
7.856039999999999e-7,1.05965e6
7.86852e-7,1.0410699999999999e6
7.881009999999999e-7,1.0229699999999999e6
7.893509999999999e-7,1.0053099999999999e6
7.906049999999999e-7,988064.0
7.922769999999999e-7,965750.0000000001
7.93955e-7,944096.0
7.956339999999999e-7,923166.9999999999
7.9732e-7,902846.0000000001
7.99006e-7,883194.0
8.00699e-7,864103.0000000001
8.02392e-7,845630.0000000001
8.040929999999999e-7,827675.0
8.05793e-7,810293.0000000001
8.074999999999999e-7,793391.0
8.092079999999999e-7,777019.0
8.109229999999999e-7,761090.0
8.126369999999999e-7,745654.0
8.143589999999999e-7,730629.0
8.160809999999999e-7,716063.0
8.1781e-7,701877.0
8.195399999999999e-7,688117.0
8.21276e-7,674711.0
8.23013e-7,661703.0
8.247569999999999e-7,649023.0
8.26501e-7,636713.0
8.282519999999999e-7,624710.0
8.300039999999999e-7,613051.0
8.317619999999999e-7,601679.0
8.33521e-7,590629.0
8.352869999999999e-7,579845.0
8.37054e-7,569362.0
8.38827e-7,559129.0
8.40601e-7,549178.0
8.423819999999999e-7,539459.0
8.441629999999999e-7,530005.0
8.459519999999999e-7,520768.0
8.47741e-7,511779.0
8.495369999999999e-7,502994.0
8.513339999999999e-7,494442.0
8.53138e-7,486081.0
8.54942e-7,477939.0
8.56753e-7,469975.0
8.585649999999999e-7,462218.0
8.603839999999999e-7,454628.00000000006
8.62204e-7,447232.0
8.640309999999999e-7,439994.0
8.65858e-7,432939.0
8.676920000000001e-7,426032.0
8.69527e-7,419297.0
8.722910000000001e-7,409464.99999999994
8.750619999999999e-7,399967.0
8.77842e-7,390788.0
8.80629e-7,381915.0
8.834279999999999e-7,373323.0
8.862349999999999e-7,365012.0
8.890499999999999e-7,356970.0
8.91873e-7,349186.0
8.947079999999999e-7,341640.0
8.975509999999999e-7,334331.0
9.00402e-7,327251.0
9.0326e-7,320390.0
9.06131e-7,313730.0
9.090109999999999e-7,307274.0
9.118980000000001e-7,301012.0
9.14793e-7,294938.0
9.177009999999998e-7,289036.0
9.20617e-7,283308.0
9.23541e-7,277747.0
9.264729999999999e-7,272347.0
9.29418e-7,267095.0
9.32371e-7,261992.0
9.353329999999999e-7,257033.99999999997
9.383019999999999e-7,252215.0
9.41285e-7,247524.0
9.44276e-7,242962.0
9.47275e-7,238525.0
9.502829999999999e-7,234208.99999999997
9.533029999999999e-7,230003.0
9.563319999999999e-7,225910.0
9.593699999999999e-7,221925.99999999997
9.62416e-7,218046.0
9.654749999999998e-7,214263.0
9.68543e-7,210578.00000000003
9.716189999999998e-7,206988.0
9.74704e-7,203489.0
9.778019999999998e-7,200075.0
9.809089999999998e-7,196747.0
9.840239999999998e-7,193502.0
9.87149e-7,190337.0
9.90286e-7,187247.0
9.93433e-7,184232.0
9.976430000000001e-7,180325.0
1.00187e-6,176542.0
1.00612e-6,172877.0
1.0100199999999998e-6,169619.0
1.0135799999999998e-6,166744.0
1.01713e-6,163951.0
1.02069e-6,161238.0
1.02608e-6,157274.0
1.0314799999999999e-6,153460.0
1.0368900000000001e-6,149803.0
1.04238e-6,146247.0
1.04787e-6,142836.0
1.05338e-6,139547.0
1.05894e-6,136360.0
1.0645e-6,133300.0
1.0701199999999998e-6,130332.0
1.07576e-6,127467.0
1.0814e-6,124712.0
1.08712e-6,122025.0
1.09284e-6,119441.0
1.1005299999999999e-6,116121.99999999999
1.10826e-6,112943.0
1.1160499999999999e-6,109898.0
1.1239e-6,106979.0
1.1318e-6,104179.0
1.13975e-6,101493.00000000001
