E(MeV),xs(mb)
1.0e-11,81428.99999999999
1.03223e-11,80148.9
1.06549e-11,78889.5
1.0998399999999998e-11,77649.40000000001
1.13527e-11,76429.40000000001
1.1718599999999999e-11,75228.0
1.2096199999999998e-11,74046.1
1.24861e-11,72882.4
1.2888399999999999e-11,71737.4
1.3303799999999998e-11,70610.0
1.37325e-11,69500.8
1.41751e-11,68408.7
1.4631799999999997e-11,67334.2
1.51034e-11,66276.2
1.5590099999999998e-11,65235.3
1.6092599999999998e-11,64210.399999999994
1.66111e-11,63202.0
1.71465e-11,62209.2
1.7699e-11,61232.3
1.8269399999999998e-11,60270.6
1.88581e-11,59324.2
1.94659e-11,58392.600000000006
2.00931e-11,57475.899999999994
2.0740699999999998e-11,56573.3
2.1408999999999998e-11,55685.3
2.2099099999999997e-11,54811.0
2.28111e-11,53950.7
2.3546399999999998e-11,53103.8
2.4305099999999997e-11,52270.5
2.50884e-11,51450.1
2.5896799999999997e-11,50642.8
2.67315e-11,49848.100000000006
2.75928e-11,49066.1
2.8482199999999998e-11,48296.200000000004
2.93999e-11,47538.7
3.0347499999999995e-11,46792.99999999999
3.13253e-11,46059.200000000004
3.2335e-11,45336.8
3.33769e-11,44626.0
3.44526e-11,43926.2
3.55627e-11,43237.7
3.67089e-11,42559.8
3.7891799999999997e-11,41892.899999999994
3.9113e-11,41236.3
4.0373400000000003e-11,40590.200000000004
4.1674599999999996e-11,39954.200000000004
4.3017399999999996e-11,39328.4
4.440389999999999e-11,38712.3
4.58347e-11,38106.1
4.7311899999999994e-11,37509.4
4.883639999999999e-11,36922.2
5.0410399999999995e-11,36344.1
5.20348e-11,35775.4
5.37119e-11,35215.5
5.54426e-11,34664.6
5.7229499999999995e-11,34122.3
5.907359999999999e-11,33588.6
6.09775e-11,33063.4
6.29424e-11,32546.5
6.497099999999999e-11,32037.7
6.70645e-11,31537.1
6.9226e-11,31044.3
7.145659999999999e-11,30559.4
7.37596e-11,30082.100000000002
7.61364e-11,29612.4
7.85902e-11,29150.100000000002
8.11227e-11,28695.300000000003
8.37372e-11,28247.5
8.643549999999999e-11,27806.899999999998
8.922119999999998e-11,27373.3
9.209619999999999e-11,26946.6
9.506439999999999e-11,26526.6
9.81277e-11,26113.300000000003
1.01291e-10,25706.5
1.04554e-10,25306.3
1.07924e-10,24912.3
1.11402e-10,24524.8
1.1499200000000001e-10,24143.2
1.1869700000000001e-10,23767.9
1.22523e-10,23398.4
1.26471e-10,23034.9
1.30547e-10,22677.0
1.34754e-10,22325.0
1.3909700000000002e-10,21978.5
1.43579e-10,21637.6
1.48207e-10,21302.0
1.52982e-10,20971.899999999998
1.57913e-10,20647.000000000004
1.6300100000000001e-10,20327.3
1.68254e-10,20012.699999999997
1.73676e-10,19703.1
1.79274e-10,19398.5
1.8505000000000002e-10,19098.7
1.91014e-10,18803.7
1.97169e-10,18513.5
2.03524e-10,18227.899999999998
2.1008200000000003e-10,17946.899999999998
2.16853e-10,17670.3
2.2384e-10,17398.2
2.31055e-10,17130.5
2.385e-10,16867.1
2.46187e-10,16607.8
2.5412e-10,16352.800000000001
2.6231e-10,16101.8
2.70762e-10,15854.900000000001
2.7948900000000003e-10,15612.0
2.88494e-10,15373.000000000002
2.9779300000000004e-10,15137.7
3.07388e-10,14906.4
3.1729500000000004e-10,14678.7
3.27519e-10,14454.7
3.38075e-10,14234.3
3.4896900000000003e-10,14017.5
3.6021600000000004e-10,13804.199999999999
3.7182300000000004e-10,13594.3
3.83807e-10,13387.800000000001
3.96174e-10,13184.7
4.08943e-10,12984.800000000001
4.2212e-10,12788.2
4.3572499999999996e-10,12594.8
4.4976500000000005e-10,12404.5
4.6426100000000007e-10,12217.3
4.79221e-10,12033.199999999999
4.94666e-10,11852.0
5.10605e-10,11673.800000000001
5.270620000000001e-10,11498.5
5.440450000000001e-10,11326.0
5.6158e-10,11156.4
5.796750000000001e-10,10989.500000000002
5.98358e-10,10825.3
6.176389999999999e-10,10663.800000000001
6.37545e-10,10505.0
6.58089e-10,10348.699999999999
6.79298e-10,10195.0
7.01188e-10,10043.800000000001
7.237860000000001e-10,9895.12
7.47109e-10,9748.86
7.71188e-10,9604.97
7.960380000000001e-10,9463.46
8.21693e-10,9324.24
8.48171e-10,9187.34
8.75507e-10,9052.66
9.037190000000002e-10,8920.210000000001
9.32845e-10,8789.92
9.62904e-10,8661.78
9.93937e-10,8535.74
1.0259700000000001e-9,8411.789999999999
1.05903e-9,8289.85
1.09316e-9,8169.9400000000005
1.1307700000000002e-9,8044.21
1.16969e-9,7920.68
1.20994e-9,7799.32
1.25157e-9,7680.08
1.2946400000000002e-9,7562.95
1.3391900000000002e-9,7447.87
1.3852700000000001e-9,7334.81
1.4329400000000002e-9,7223.740000000001
1.4822500000000001e-9,7114.620000000001
1.5332600000000001e-9,7007.42
1.58602e-9,6902.099999999999
1.64059e-9,6798.63
1.69705e-9,6696.98
1.75545e-9,6597.12
1.81585e-9,6499.01
1.87834e-9,6402.62
1.9429700000000004e-9,6307.92
2.0098300000000003e-9,6214.889999999999
2.07899e-9,6123.490000000001
2.15054e-9,6033.69
2.2245400000000003e-9,5945.46
2.30109e-9,5858.79
2.38027e-9,5773.63
2.4621800000000003e-9,5689.96
2.5469e-9,5607.76
2.63455e-9,5527.0
2.7252e-9,5447.639999999999
2.81898e-9,5369.679999999999
2.91599e-9,5293.08
3.01633e-9,5217.82
3.12012e-9,5143.87
3.22749e-9,5071.21
3.3385500000000002e-9,4999.82
3.4534400000000004e-9,4929.67
3.57227e-9,4860.75
3.6952000000000002e-9,4793.02
3.822360000000001e-9,4726.48
3.95389e-9,4661.09
4.08995e-9,4596.84
4.23965e-9,4529.79
4.39482e-9,4463.99
4.55568e-9,4399.39
4.72241e-9,4335.99
4.89527e-9,4273.75
5.07442e-9,4212.66
5.26016e-9,4152.69
5.452680000000001e-9,4093.82
5.65226e-9,4036.03
5.859130000000001e-9,3979.31
6.07359e-9,3923.63
6.2958700000000005e-9,3868.97
6.52632e-9,3815.3100000000004
6.765170000000001e-9,3762.63
7.0128000000000004e-9,3710.92
7.26946e-9,3660.16
7.535540000000001e-9,3610.32
7.81133e-9,3561.4
8.097250000000002e-9,3513.36
8.3936e-9,3466.2099999999996
8.70083e-9,3419.92
9.019270000000001e-9,3374.48
9.3494e-9,3329.86
9.69157e-9,3286.06
1.0046299999999999e-8,3243.05
1.0436099999999999e-8,3198.3700000000003
1.08409e-8,3154.56
1.12615e-8,3111.58
1.16984e-8,3069.44
1.21522e-8,3028.1099999999997
1.26237e-8,2987.5699999999997
1.31134e-8,2947.81
1.36222e-8,2908.82
1.41506e-8,2870.5699999999997
1.4699599999999999e-8,2833.06
1.52699e-8,2796.2799999999997
1.58623e-8,2760.19
1.64776e-8,2724.8
1.7116899999999998e-8,2690.1000000000004
1.77809e-8,2656.05
1.84708e-8,2622.6600000000003
1.91873e-8,2589.9100000000003
1.99738e-8,2556.0299999999997
2.0792700000000003e-8,2522.8199999999997
2.1645e-8,2490.29
2.2532399999999998e-8,2458.4100000000003
2.3456000000000002e-8,2427.19
2.44176e-8,2396.58
2.52522e-8,2371.46
2.5299999999999998e-8,2370.06
2.63372e-8,2340.6099999999997
2.7416800000000002e-8,2311.76
2.8540800000000003e-8,2283.4900000000002
2.97107e-8,2255.79
3.09288e-8,2228.64
3.2196600000000005e-8,2202.0499999999997
3.3587400000000003e-8,2174.63
3.5038299999999996e-8,2147.79
3.6551800000000004e-8,2121.52
3.81308e-8,2095.8100000000004
3.97779e-8,2070.64
4.1496199999999994e-8,2046.01
4.32888e-8,2021.9
4.51587e-8,1998.3
4.71095e-8,1975.2
4.914450000000001e-8,1952.5900000000001
5.1376e-8,1929.35
5.37087e-8,1906.6399999999999
5.61475e-8,1884.42
5.86967e-8,1862.7
6.136210000000001e-8,1841.46
6.41481e-8,1820.6899999999998
6.70609e-8,1800.38
7.01057e-8,1780.5200000000002
7.32891e-8,1761.1000000000001
7.6779e-8,1741.22
8.04351e-8,1721.8
8.42653e-8,1702.8300000000002
8.82779e-8,1684.3
9.24815e-8,1666.1999999999998
9.68854e-8,1648.52
1.01499e-7,1631.25
1.0655699999999998e-7,1613.6200000000001
1.1186799999999998e-7,1596.41
1.17442e-7,1579.6200000000001
1.23296e-7,1563.2299999999998
1.2944e-7,1547.24
1.35891e-7,1531.6399999999999
1.42965e-7,1515.76
1.50408e-7,1500.28
1.58238e-7,1485.19
1.66475e-7,1470.48
1.75142e-7,1456.14
1.84649e-7,1441.59
1.9467299999999999e-7,1427.4199999999998
2.0524e-7,1413.6200000000001
2.1638199999999999e-7,1400.18
2.2812800000000002e-7,1387.09
2.41021e-7,1373.84
2.54643e-7,1360.95
2.69035e-7,1348.41
2.8424e-7,1336.2
3.0094e-7,1323.8799999999999
3.18621e-7,1311.9099999999999
3.37342e-7,1300.2800000000002
3.57161e-7,1288.97
3.78946e-7,1277.59
4.02059e-7,1266.53
4.2658300000000003e-7,1255.79
4.5356099999999997e-7,1245.0
4.822429999999999e-7,1234.53
5.12742e-7,1224.37
5.463219999999999e-7,1214.19
5.82101e-7,1204.3200000000002
6.20223e-7,1194.76
6.62239e-7,1185.19
7.071049999999999e-7,1175.92
7.55007e-7,1166.96
8.07863e-7,1158.0
8.64418e-7,1149.34
9.268929999999999e-7,1140.69
9.938789999999998e-7,1132.34
1.0721e-6,1123.6
1.19084e-6,1111.99
1.3604e-6,1098.11
1.63216e-6,1080.5
2.0565699999999995e-6,1060.28
2.6837599999999998e-6,1039.4
3.5767e-6,1019.5000000000001
4.8678499999999995e-6,1000.6800000000001
6.71856e-6,983.1110000000001
9.60318e-6,965.5620000000001
1.4018200000000002e-5,948.1809999999999
2.1341199999999998e-5,929.143
3.36488e-5,906.874
5.4559100000000004e-5,878.4639999999999
8.846800000000001e-5,841.206
0.000135627,797.021
0.000193868,749.335
0.000256562,703.914
0.000323275,660.698
0.000396101,618.813
0.00046533400000000003,583.7049999999999
0.0005241930000000001,557.346
0.000574155,537.372
0.0006201590000000001,521.174
0.000655527,510.175
0.0006981670000000001,498.78299999999996
0.0007488260000000001,488.309
0.0007953000000000001,482.05600000000004
0.0008377000000000001,479.706
0.000843,479.67199999999997
0.000870793,480.85
0.0008822200000000001,483.225
0.0008866720000000001,486.407
0.000888898,490.578
0.000890223,495.934
0.0008908060000000002,500.04799999999994
0.0008913360000000002,506.143
0.000891601,511.142
0.000891866,519.057
0.000892065,528.54
0.0008921970000000001,537.645
0.00089233,550.025
0.0008924289999999999,562.203
0.0008925290000000001,577.6
0.000892628,597.047
0.0008926940000000001,612.747
0.00089276,631.0310000000001
0.000892827,652.279
0.000892893,676.919
0.0008929510000000001,701.629
0.000893025,738.295
0.0008931,781.206
0.00089315,813.706
0.0008931990000000001,849.636
0.000893249,889.282
0.0008932990000000001,932.939
0.000893348,980.917
0.000893398,1033.53
0.0008934480000000001,1091.1100000000001
0.000893497,1153.97
0.0008935470000000001,1222.46
0.000893597,1296.91
0.000893647,1377.6399999999999
0.0008936959999999999,1464.97
0.0008937540000000001,1575.6399999999999
0.000893787,1643.29
0.000893853,1788.6200000000001
0.00089392,1947.83
0.000893986,2121.45
0.000894052,2309.8999999999996
0.0008941190000000001,2513.48
0.0008941850000000001,2732.33
0.0008942510000000001,2966.43
0.0008943350000000001,3286.7000000000003
0.00089442,3630.49
0.0008945040000000001,3996.3199999999997
0.0008946170000000001,4514.599999999999
0.000894735,5086.0599999999995
0.000895099,6933.24
0.0008952310000000001,7575.0
0.0008953300000000001,8017.69
0.0008954280000000001,8422.42
0.000895534,8806.900000000001
0.0008956400000000001,9126.150000000001
0.0008957240000000001,9328.55
0.00089582,9494.960000000001
0.000895915,9592.77
0.000895999,9620.23
0.000896089,9588.2
0.0008961700000000001,9506.05
0.0008962680000000001,9340.01
0.0008963390000000001,9175.28
0.000896435,8902.55
0.000896541,8535.43
0.0008966620000000001,8045.37
0.0008967650000000001,7580.549999999999
0.0008968909999999999,6972.6900000000005
0.0008972619999999999,5094.54
0.0008973910000000001,4467.97
0.0008974990000000001,3974.7200000000003
0.000897599,3547.1400000000003
0.000897669,3264.94
0.000897739,2999.01
0.00089781,2749.87
0.00089788,2517.78
0.00089795,2302.7799999999997
0.00089802,2104.6800000000003
0.000898073,1966.99
0.0008981249999999999,1838.3899999999999
0.0008981780000000001,1718.63
0.0008982310000000001,1607.42
0.000898283,1504.4299999999998
0.000898336,1409.32
0.0008983890000000001,1321.72
0.000898441,1241.26
0.000898494,1167.53
0.0008985460000000001,1100.16
0.0008985989999999999,1038.75
0.0008986520000000001,982.9050000000001
0.0008987040000000001,932.245
0.000898757,886.397
0.00089881,844.9970000000001
0.000898862,807.6980000000001
0.0008988970000000001,784.9440000000001
0.0008989670000000001,744.079
0.000899038,708.81
0.000899108,678.473
0.000899178,652.457
0.0008992480000000001,630.212
0.0008993180000000001,611.2370000000001
0.0008993890000000001,595.088
0.000899494,575.307
0.0008995990000000002,559.857
0.000899669,551.494
0.0008998100000000001,538.389
0.000899967,527.9359999999999
0.0009001250000000001,520.583
0.0009003360000000001,513.8639999999999
0.000900652,507.53000000000003
0.0009010730000000001,502.426
0.000901887,496.751
0.000903066,492.36199999999997
0.0009046379999999999,489.38499999999993
0.000908006,486.907
0.0009136200000000001,486.13
0.0009333810000000001,488.773
0.000961675,496.079
0.000989001,505.687
0.0010171,518.37
0.0010449600000000002,534.623
0.0010671200000000002,550.124
0.0010866,565.91
0.00110964,587.577
0.00112824,607.597
0.00114415,626.588
0.00116168,649.876
0.0011863800000000001,687.783
0.00120733,724.548
0.0012237,756.36
0.0012409699999999999,794.055
0.0012669299999999999,857.8770000000001
0.0012857300000000001,910.798
0.0013012300000000002,959.356
0.00131674,1012.3
0.0013322400000000002,1070.76
0.00134775,1134.55
0.00136326,1205.0700000000002
0.00137876,1282.1299999999999
0.00139427,1367.4599999999998
0.00140977,1460.8600000000001
0.0014252800000000001,1564.53
0.00144078,1678.25
0.00145629,1804.8200000000002
0.0014666300000000002,1896.3600000000001
0.00147696,1994.42
0.0014873,2099.53
0.00149867,2224.49
0.00150487,2295.61
0.00151728,2449.3999999999996
0.00152968,2617.67
0.00154209,2800.86
0.00155449,3002.38
0.0015669,3222.33
0.0015793,3465.16
0.00159171,3731.14
0.00160411,4026.0
0.00161238,4239.09
0.00162065,4467.13
0.00162892,4711.44
0.00163719,4973.46
0.00164546,5254.81
0.00165373,5557.2699999999995
0.0016619999999999998,5882.85
0.00167027,6233.79
0.0016785399999999998,6612.58
0.00168681,7022.04
0.0016950799999999999,7465.33
0.00170335,7946.030000000001
0.0017116199999999999,8468.17
0.00171989,9036.339999999998
0.0017240200000000002,9336.35
0.00173229,9983.26
0.0017405600000000002,10690.599999999999
0.00174883,11465.8
0.0017571000000000002,12317.199999999999
0.00176537,13254.5
0.0017736400000000002,14289.099999999999
0.00178191,15431.6
0.00178811,16369.7
0.0017943100000000001,17387.399999999998
0.00180052,18492.4
0.0018067200000000002,19692.8
0.00181395,21230.899999999998
0.00182119,22937.5
0.00182843,24826.7
0.00183385,26386.2
0.0018383499999999999,27779.5
0.00184372,29579.9
0.00184972,31780.7
0.00185468,33773.7
0.00185964,35944.2
0.00186543,38715.799999999996
0.00186977,40988.5
0.0018745300000000001,43693.5
0.0018794900000000002,46782.5
0.00188445,50176.5
0.0018894200000000002,53915.7
0.00189438,58044.700000000004
0.00189934,62617.700000000004
0.0019043,67695.3
0.00190926,73351.3
0.0019125700000000002,77484.09999999999
0.00191588,81939.9
0.00191919,86750.79999999999
0.00192249,91953.0
0.0019258,97586.6
0.0019291100000000002,103697.0
0.00193242,110334.0
0.00193573,117556.0
0.00193903,125426.0
0.00194234,134016.0
0.0019456500000000002,143406.0
0.00194896,153687.0
0.0019522600000000001,164961.0
0.0019555700000000002,177340.0
0.00195888,190951.0
0.00196219,205934.00000000003
0.0019655000000000002,222441.99999999997
0.0019688,240642.99999999997
0.00197211,260716.0
0.00197377,271510.0
0.00197707,294744.0
0.00198038,320325.0
0.00198369,348430.0
0.001987,379210.0
0.00199031,412761.0
0.0019936100000000003,449097.0
0.00199692,488103.0
0.0020002300000000004,529486.0
0.00200664,614223.0
0.00201284,696098.0
0.00201594,733802.0
0.00201884,765212.0
0.00202173,791624.0
0.0020239,807415.0
0.00202607,819280.0
0.0020283000000000002,827073.0
0.00203066,830138.0
0.00203286,828129.0
0.0020350700000000004,821632.9999999999
0.00203727,810851.0000000001
0.0020394700000000003,796148.0
0.0020424,771133.0
0.00204566,737840.0
0.00204892,700566.0
0.00206142,546405.0
0.00206473,507794.0
0.0020680399999999997,471321.0
0.00207135,437223.0
0.0020746600000000003,405593.99999999994
0.0020779600000000002,376425.0
0.00208127,349634.0
0.00208458,325095.0
0.00208789,302659.0
0.0020912,282164.0
0.0020945,263448.0
0.00209781,246355.0
0.0021011199999999997,230735.0
0.00210443,216448.00000000003
0.0021077400000000003,203368.0
0.0021110400000000002,191378.0
0.00211435,180372.0
0.00211766,170256.0
0.00212097,160943.0
0.00212427,152358.0
0.00212758,144430.0
0.00213089,137100.0
0.00213585,127102.0
0.00214081,118161.99999999999
0.00214578,110140.0
0.00215074,102919.99999999999
0.0021557,96399.9
0.00216066,90495.7
0.00216562,85133.2
0.00217058,80249.7
0.00217555,75790.3
0.00218051,71708.4
0.00218547,67962.5
0.00219209,63432.8
0.00219767,59974.299999999996
0.0022032500000000003,56827.0
0.0022099700000000003,53352.00000000001
0.00221596,50520.6
0.00222289,47551.1
0.00223075,44512.299999999996
0.00223829,41882.4
0.00224553,39588.8
0.0022522500000000003,37641.8
0.00226155,35200.9
0.00226982,33238.9
0.0022780900000000004,31452.9
0.0022863600000000003,29822.4
0.00229463,28329.399999999998
0.0023029,26958.7
0.0023111700000000004,25697.100000000002
0.0023194400000000003,24533.0
0.0023318400000000004,22951.600000000002
0.0023442500000000004,21532.300000000003
0.00235665,20263.7
0.00236906,19115.8
0.00238146,18081.100000000002
0.00239387,17138.100000000002
0.0024062700000000003,16282.000000000002
0.0024186800000000003,15496.8
0.00243522,14552.0
0.00245175,13706.5
0.00246829,12946.5
0.00248483,12260.4
0.00250137,11644.4
0.00251688,11110.500000000002
0.0025385900000000003,10435.4
0.0025602900000000002,9838.25
0.00258304,9275.119999999999
0.0026062900000000003,8763.43
0.00262955,8300.48
0.0026528100000000002,7885.88
0.00267607,7507.73
0.00270191,7131.25
0.0027329200000000002,6722.29
0.00276394,6361.3099999999995
0.00279495,6035.17
0.0028259599999999998,5744.049999999999
0.00285697,5478.72
0.0028983200000000002,5163.67
0.00293967,4884.76
0.00298102,4636.339999999999
0.00302236,4413.86
0.00307372,4168.33
0.00312251,3963.46
0.00315268,3853.26
0.0031661600000000003,3813.5699999999997
0.0031777199999999998,3797.1499999999996
0.00318362,3810.66
0.00318645,3832.5
0.0031885900000000003,3863.5899999999997
0.0031900400000000003,3897.56
0.0031915,3949.68
0.00319259,4008.89
0.00319332,4064.14
0.00319395,4128.37
0.00319449,4201.04
0.00319503,4299.299999999999
0.00319543,4398.32
0.00319584,4529.5199999999995
0.00319613,4653.49
0.00319643,4809.43
0.00319662,4935.71
0.0031968200000000004,5083.719999999999
0.00319701,5257.25
0.0031972100000000002,5460.650000000001
0.0031974100000000004,5698.71
0.0031975500000000004,5900.5
0.0031977000000000004,6126.45
0.00319785,6378.9800000000005
0.00319799,6660.490000000001
0.00319814,6973.51
0.00319828,7320.47
0.0031984300000000004,7703.820000000001
0.0031985700000000004,8125.830000000001
0.00319872,8588.710000000001
0.00319886,9094.25
0.00319901,9644.05
0.00319916,10239.199999999999
0.0031993,10880.5
0.0031994500000000004,11567.9
0.00319967,12684.2
0.00319985,13681.000000000002
0.0032000600000000002,14951.099999999999
0.00320028,16297.2
0.0032006,18421.6
0.0032012100000000003,22493.3
0.00320144,23983.0
0.00320166,25302.600000000002
0.00320187,26434.7
0.00320206,27321.100000000002
0.0032023000000000004,28281.9
0.0032025100000000004,28898.3
0.00320268,29238.300000000003
0.00320287,29460.3
0.003203,29503.300000000003
0.00320315,29442.8
0.00320331,29255.8
0.00320354,28768.8
0.00320375,28104.5
0.0032039900000000003,27093.9
0.00320418,26174.9
0.00320439,25012.500000000004
0.00320461,23668.300000000003
0.0032049599999999998,21385.0
0.0032056,17043.2
0.0032058300000000002,15625.4
0.00320605,14279.2
0.00320627,13020.099999999999
0.00320645,12050.0
0.0032066,11330.499999999998
0.00320674,10656.8
0.00320689,10029.300000000001
0.00320703,9447.570000000002
0.00320718,8910.85
0.00320733,8417.87
0.00320747,7966.97
0.00320762,7556.17
0.00320776,7183.29
0.00320791,6846.009999999999
0.00320805,6541.9
0.0032082,6268.46
0.00320834,6023.23
0.00320849,5803.81
0.00320871,5517.9400000000005
0.00320892,5288.44
0.00320912,5094.01
0.0032093300000000003,4929.38
0.0032095400000000003,4789.92
0.0032098499999999998,4619.2
0.00321016,4484.78
0.00321051,4366.799999999999
0.00321093,4256.99
0.00321135,4172.55
0.00321177,4105.82
0.0032123300000000002,4035.8900000000003
0.0032133400000000003,3944.9700000000003
0.00321407,3896.9100000000003
0.0032155200000000004,3827.02
0.00321713,3774.52
0.00321873,3736.83
0.0032219500000000003,3685.39
0.00322518,3651.14
0.0032312599999999997,3607.3599999999997
0.00324282,3551.93
0.00327322,3446.98
0.0033316,3280.3900000000003
0.00339971,3110.56
0.00347755,2939.8900000000003
0.00356684,2768.84
0.00365956,2613.83
0.0037522799999999998,2477.73
0.0038450000000000003,2357.41
