E(MeV),xs(mb)
1.0e-11,1.00111e6
1.03223e-11,985361.0
1.06549e-11,969870.0
1.0998399999999998e-11,954615.0000000001
1.13527e-11,939608.0
1.1718599999999999e-11,924830.0
1.2096199999999998e-11,910291.0
1.24861e-11,895975.0
1.2888399999999999e-11,881891.0000000001
1.3303799999999998e-11,868022.0
1.37325e-11,854377.0
1.41751e-11,840942.0000000001
1.4631799999999997e-11,827723.0
1.51034e-11,814708.0000000001
1.5590099999999998e-11,801901.9999999999
1.6092599999999998e-11,789294.0
1.66111e-11,776888.0
1.71465e-11,764674.0
1.7699e-11,752655.0
1.8269399999999998e-11,740823.0
1.88581e-11,729180.0
1.94659e-11,717717.0
2.00931e-11,706438.0
2.0740699999999998e-11,695334.0
2.1408999999999998e-11,684407.0
2.2099099999999997e-11,673650.0
2.28111e-11,663065.0
2.3546399999999998e-11,652644.0
2.4305099999999997e-11,642389.0
2.50884e-11,632294.0
2.5896799999999997e-11,622360.0
2.67315e-11,612580.0
2.75928e-11,602957.0
2.8482199999999998e-11,593483.0
2.93999e-11,584161.0
3.0347499999999995e-11,574983.0
3.13253e-11,565952.0
3.2335e-11,557061.0
3.33769e-11,548313.0
3.44526e-11,539700.0
3.55627e-11,531225.0
3.67089e-11,522882.0
3.7891799999999997e-11,514672.0
3.9113e-11,506590.0
4.0373400000000003e-11,498636.00000000006
4.1674599999999996e-11,490807.00000000006
4.3017399999999996e-11,483101.99999999994
4.440389999999999e-11,475518.0
4.58347e-11,468055.0
4.7311899999999994e-11,460707.0
4.883639999999999e-11,453477.99999999994
5.0410399999999995e-11,446359.99999999994
5.20348e-11,439357.00000000006
5.37119e-11,432462.00000000006
5.54426e-11,425678.0
5.7229499999999995e-11,418999.0
5.907359999999999e-11,412427.0
6.09775e-11,405958.00000000006
6.29424e-11,399591.0
6.497099999999999e-11,393324.0
6.70645e-11,387157.0
6.9226e-11,381087.0
7.145659999999999e-11,375113.0
7.37596e-11,369232.0
7.61364e-11,363446.0
7.85902e-11,357749.0
8.11227e-11,352144.0
8.37372e-11,346626.0
8.643549999999999e-11,341196.0
8.922119999999998e-11,335851.0
9.209619999999999e-11,330592.0
9.506439999999999e-11,325415.0
9.81277e-11,320320.0
1.01291e-10,315304.0
1.04554e-10,310370.0
1.07924e-10,305512.0
1.11402e-10,300732.0
1.1499200000000001e-10,296026.0
1.1869700000000001e-10,291397.0
1.22523e-10,286839.0
1.26471e-10,282354.0
1.30547e-10,277939.0
1.34754e-10,273596.0
1.3909700000000002e-10,269319.0
1.43579e-10,265112.0
1.48207e-10,260970.0
1.52982e-10,256894.0
1.57913e-10,252882.0
1.6300100000000001e-10,248935.0
1.68254e-10,245048.99999999997
1.73676e-10,241225.99999999997
1.79274e-10,237462.00000000003
1.8505000000000002e-10,233759.0
1.91014e-10,230114.00000000003
1.97169e-10,226527.0
2.03524e-10,222996.00000000003
2.1008200000000003e-10,219523.0
2.16853e-10,216102.99999999997
2.2384e-10,212738.0
2.31055e-10,209425.99999999997
2.385e-10,206168.0
2.46187e-10,202959.99999999997
2.5412e-10,199804.0
2.6231e-10,196697.0
2.70762e-10,193640.0
2.7948900000000003e-10,190631.0
2.88494e-10,187671.0
2.9779300000000004e-10,184757.0
3.07388e-10,181890.0
3.1729500000000004e-10,179067.0
3.27519e-10,176290.0
3.38075e-10,173557.0
3.4896900000000003e-10,170868.0
3.6021600000000004e-10,168221.0
3.7182300000000004e-10,165616.0
3.83807e-10,163053.0
3.96174e-10,160530.0
4.08943e-10,158048.0
4.2212e-10,155605.0
4.3572499999999996e-10,153200.0
4.4976500000000005e-10,150835.0
4.6426100000000007e-10,148506.0
4.79221e-10,146215.0
4.94666e-10,143960.0
5.10605e-10,141742.0
5.270620000000001e-10,139558.0
5.440450000000001e-10,137409.0
5.6158e-10,135294.0
5.796750000000001e-10,133214.0
5.98358e-10,131166.0
6.176389999999999e-10,129151.0
6.37545e-10,127167.00000000001
6.58089e-10,125216.0
6.79298e-10,123295.0
7.01188e-10,121405.00000000001
7.237860000000001e-10,119544.99999999999
7.47109e-10,117714.99999999999
7.71188e-10,115914.0
7.960380000000001e-10,114142.00000000001
8.21693e-10,112398.0
8.48171e-10,110681.0
8.75507e-10,108992.0
9.037190000000002e-10,107329.99999999999
9.32845e-10,105694.0
9.62904e-10,104085.0
9.93937e-10,102499.99999999999
1.0259700000000001e-9,100942.0
1.05903e-9,99407.5
1.09316e-9,97898.0
1.12839e-9,96412.3
1.16475e-9,94950.50000000001
1.2022900000000002e-9,93511.6
1.2410300000000002e-9,92095.90000000001
1.28103e-9,90702.5
1.3223100000000002e-9,89331.5
1.36492e-9,87982.0
1.4089000000000002e-9,86654.3
1.4543100000000001e-9,85347.4
1.5011699999999999e-9,84061.5
1.5495600000000002e-9,82795.90000000001
1.5994900000000002e-9,81550.49999999999
1.6510400000000001e-9,80324.8
1.7042400000000001e-9,79118.7
1.75917e-9,77931.6
1.81585e-9,76763.59999999999
1.87438e-9,75613.90000000001
1.9347700000000003e-9,74482.7
1.99713e-9,73369.2
2.06148e-9,72273.6
2.1279200000000002e-9,71195.2
2.19649e-9,70134.2
2.26728e-9,69089.7
2.3403400000000002e-9,68062.1
2.4157700000000002e-9,67050.5
2.49362e-9,66055.2
2.5739800000000002e-9,65075.5
2.65692e-9,64111.5
2.7425500000000002e-9,63162.700000000004
2.8309300000000003e-9,62229.0
2.92217e-9,61310.0
3.01633e-9,60405.7
3.11354e-9,59515.6
3.21387e-9,58639.799999999996
3.3174500000000004e-9,57777.700000000004
3.42435e-9,56929.4
3.53471e-9,56094.4
3.6486100000000003e-9,55272.8
3.77417e-9,54410.7
3.90404e-9,53563.1
4.038380000000001e-9,52729.799999999996
4.17735e-9,51910.7
4.321100000000001e-9,51105.299999999996
4.46979e-9,50313.600000000006
4.6236e-9,49535.200000000004
4.78271e-9,48769.9
4.94728e-9,48017.6
5.117530000000001e-9,47278.0
5.2936300000000005e-9,46550.799999999996
5.475790000000001e-9,45836.0
5.66421e-9,45133.1
5.859130000000001e-9,44442.2
6.06075e-9,43762.9
6.269300000000001e-9,43095.0
6.48504e-9,42438.5
6.7082000000000005e-9,41792.9
6.939030000000001e-9,41158.299999999996
7.1778100000000005e-9,40534.4
7.42481e-9,39921.0
7.680310000000001e-9,39317.9
7.944600000000001e-9,38725.0
8.217980000000001e-9,38142.200000000004
8.50077e-9,37569.1
8.793290000000001e-9,37005.7
9.09588e-9,36451.799999999996
9.40888e-9,35907.200000000004
9.73265e-9,35371.8
1.0067600000000001e-8,34845.5
1.0414000000000001e-8,34328.0
1.07724e-8,33819.2
1.1143000000000001e-8,33319.0
1.1526499999999999e-8,32827.299999999996
1.19231e-8,32343.8
1.2333400000000002e-8,31868.500000000004
1.27578e-8,31401.2
1.31968e-8,30941.800000000003
1.3651e-8,30490.1
1.41207e-8,30046.0
1.4606600000000001e-8,29609.3
1.51092e-8,29180.100000000002
1.56292e-8,28758.0
1.6167000000000002e-8,28343.1
1.67233e-8,27935.1
1.72988e-8,27534.100000000002
1.78941e-8,27139.7
1.85098e-8,26752.1
1.91468e-8,26370.9
1.98056e-8,25996.199999999997
2.04871e-8,25627.9
2.1192099999999998e-8,25265.7
2.1921400000000003e-8,24909.6
2.26757e-8,24559.600000000002
2.3456000000000002e-8,24215.399999999998
2.42632e-8,23877.100000000002
2.50981e-8,23544.399999999998
2.52522e-8,23484.8
2.5299999999999998e-8,23466.399999999998
2.6226099999999998e-8,23120.5
2.71859e-8,22780.8
2.8181e-8,22447.1
2.9212400000000002e-8,22119.399999999998
3.0281600000000004e-8,21797.5
3.13899e-8,21481.4
3.2538900000000006e-8,21170.9
3.37297e-8,20865.999999999996
3.4964300000000004e-8,20566.5
3.6244000000000003e-8,20272.399999999998
3.7570600000000004e-8,19983.5
3.89456e-8,19699.899999999998
4.03712e-8,19421.3
4.1848700000000003e-8,19147.7
4.33805e-8,18879.0
4.4968199999999994e-8,18615.2
4.66141e-8,18356.0
4.8320100000000004e-8,18101.6
5.008880000000001e-8,17851.7
5.1922e-8,17606.2
5.38225e-8,17365.2
5.57923e-8,17128.399999999998
5.78345e-8,16895.8
5.995110000000001e-8,16667.5
6.21455e-8,16443.1
6.442e-8,16222.8
6.67779e-8,16006.499999999998
6.92219e-8,15794.0
7.17556e-8,15585.3
7.43818e-8,15380.400000000001
7.726740000000001e-8,15167.4
8.026500000000001e-8,14958.400000000001
8.33789e-8,14753.5
8.66136e-8,14552.400000000001
8.99737e-8,14355.1
9.34643e-8,14161.6
9.70902e-8,13971.800000000001
1.0085699999999999e-7,13785.6
1.0477e-7,13603.0
1.0883400000000001e-7,13423.8
1.1305599999999999e-7,13247.9
1.17442e-7,13075.4
1.2199899999999998e-7,12906.1
1.26731e-7,12740.1
1.3164800000000002e-7,12577.199999999999
1.36755e-7,12417.400000000001
1.42061e-7,12260.7
1.47572e-7,12106.9
1.53622e-7,11947.7
1.59919e-7,11791.8
1.66475e-7,11638.900000000001
1.73299e-7,11489.199999999999
1.80404e-7,11342.4
1.87799e-7,11198.6
1.95498e-7,11057.699999999999
2.03512e-7,10919.6
2.11855e-7,10784.400000000001
2.20539e-7,10651.8
2.2957999999999997e-7,10521.9
2.3899099999999997e-7,10394.6
2.48789e-7,10269.8
2.58987e-7,10147.5
2.70175e-7,10021.4
2.81846e-7,9898.05
2.94021e-7,9777.27
3.06722e-7,9659.039999999999
3.19971e-7,9543.32
3.33793e-7,9430.05
3.4821199999999997e-7,9319.179999999998
3.63254e-7,9210.67
3.78946e-7,9104.45
3.95315e-7,9000.49
4.12392e-7,8898.79
4.31118e-7,8794.35
4.5069199999999997e-7,8692.19
4.7115699999999996e-7,8592.25
4.925489999999999e-7,8494.54
5.149149999999999e-7,8399.0
5.38293e-7,8305.61
5.62736e-7,8214.29
5.88286e-7,8125.009999999999
6.163e-7,8033.620000000001
6.45647e-7,7944.37
6.76392e-7,7857.21
7.086e-7,7772.09
7.42343e-7,7688.97
7.77692e-7,7607.8
8.14725e-7,7528.59
8.55329e-7,7447.79
8.979539999999999e-7,7368.9
9.42706e-7,7291.929999999999
9.89685e-7,7216.87
1.04247e-6,7138.71
1.1102799999999999e-6,7046.76
1.19924e-6,6938.42
1.31355e-6,6815.629999999999
1.4591099999999998e-6,6681.2300000000005
1.66678e-6,6521.36
1.94449e-6,6349.74
2.30047e-6,6179.509999999999
2.74082e-6,6018.55
3.2653099999999997e-6,5875.67
3.9176e-6,5747.860000000001
4.667500000000001e-6,5648.7
5.48331e-6,5584.65
6.352409999999999e-6,5560.150000000001
6.3969099999999995e-6,5560.06
7.20929e-6,5580.94
7.95211e-6,5640.39
8.58928e-6,5729.58
9.14798e-6,5845.07
9.67526e-6,5995.39
1.0090600000000001e-5,6150.23
1.0450500000000001e-5,6317.52
1.0822700000000002e-5,6530.929999999999
1.11303e-5,6746.04
1.14465e-5,7012.96
1.1689900000000001e-5,7255.8
1.19379e-5,7546.45
1.2191700000000002e-5,7898.75
1.23637e-5,8175.090000000001
1.2538100000000001e-5,8492.25
1.2715000000000001e-5,8858.4
1.28944e-5,9283.88
1.3076300000000002e-5,9781.92
1.32144e-5,10212.9
1.33537e-5,10702.7
1.3495e-5,11265.0
1.3637600000000001e-5,11911.7
1.3781600000000002e-5,12660.3
1.3878500000000001e-5,13227.500000000002
1.3976000000000001e-5,13858.1
1.40743e-5,14560.800000000001
1.41732e-5,15348.599999999999
1.4272800000000002e-5,16237.5
1.4373100000000001e-5,17244.8
1.4448900000000002e-5,18091.1
1.45247e-5,19021.600000000002
1.4601500000000002e-5,20062.7
1.4678400000000002e-5,21216.0
1.4755600000000002e-5,22504.0
1.4833500000000001e-5,23955.5
1.4911400000000001e-5,25583.9
1.49901e-5,27437.6
1.5042800000000001e-5,28815.0
1.5095500000000001e-5,30316.2
1.5148200000000002e-5,31956.3
1.52016e-5,33780.0
1.5255000000000002e-5,35786.7
1.53084e-5,38001.5
1.53619e-5,40453.799999999996
1.54161e-5,43219.0
1.5470200000000003e-5,46307.600000000006
1.55109e-5,48866.899999999994
1.5551500000000002e-5,51662.600000000006
1.55923e-5,54739.4
1.5633500000000002e-5,58153.2
1.56748e-5,61919.5
1.5716000000000003e-5,66089.4
1.5757200000000002e-5,70723.1
1.57984e-5,75892.3
1.5835e-5,81004.0
1.58716e-5,86677.5
1.59083e-5,92997.9
1.59449e-5,100068.0
1.59693e-5,105258.0
1.6004200000000002e-5,113447.00000000001
1.60358e-5,121733.0
1.60674e-5,130997.00000000001
1.6089e-5,137982.0
1.6111100000000002e-5,145766.0
1.61333e-5,154252.0
1.61554e-5,163529.0
1.6177600000000002e-5,173699.0
1.61997e-5,184881.0
1.62219e-5,197215.0
1.62441e-5,210862.00000000003
1.62662e-5,226010.0
1.62884e-5,242882.0
1.6305e-5,256820.0
1.6321600000000003e-5,271997.0
1.6338200000000002e-5,288556.0
1.63548e-5,306660.0
1.63714e-5,326493.0
1.6388100000000003e-5,348271.0
1.6404700000000002e-5,372242.0
1.64213e-5,398696.0
1.64374e-5,426945.99999999994
1.6452300000000002e-5,455933.0
1.64673e-5,487852.0
1.6483300000000002e-5,525845.0
1.6494400000000003e-5,554565.0
1.65055e-5,585574.0
1.65207e-5,632187.0
1.65351e-5,681370.0
1.6548700000000003e-5,732903.0
1.65598e-5,778779.0
1.65719e-5,833778.0
1.6585200000000002e-5,899710.0
1.65974e-5,966086.0
1.6608500000000002e-5,1.03176e6
1.6619600000000003e-5,1.10287e6
1.6630700000000003e-5,1.17974e6
1.66417e-5,1.26267e6
1.66528e-5,1.3519e6
1.66639e-5,1.44763e6
1.6675000000000002e-5,1.54997e6
1.66901e-5,1.70062e6
1.6704500000000002e-5,1.85518e6
1.6718900000000004e-5,2.02e6
1.67386e-5,2.25891e6
1.67647e-5,2.59597e6
1.6804e-5,3.10824e6
1.6823600000000003e-5,3.34821e6
1.68393e-5,3.52325e6
1.6855e-5,3.67758e6
1.68655e-5,3.76653e6
1.68786e-5,3.85974e6
1.6891700000000003e-5,3.93094e6
1.69048e-5,3.97843e6
1.69179e-5,4.0010700000000005e6
1.69228e-5,4.0030200000000005e6
1.69349e-5,3.99253e6
1.6948e-5,3.95702e6
1.6961100000000003e-5,3.89729e6
1.69741e-5,3.81483e6
1.69898e-5,3.68873e6
1.6999e-5,3.60306e6
1.70173e-5,3.4094e6
1.7037e-5,3.17661e6
1.7069700000000004e-5,2.75735e6
1.71024e-5,2.33536e6
1.7122e-5,2.09477e6
1.7141700000000002e-5,1.8697e6
1.71547e-5,1.72982e6
1.7167800000000002e-5,1.5987e6
1.71809e-5,1.47659e6
1.7194000000000002e-5,1.36349e6
1.72071e-5,1.25924e6
1.72202e-5,1.16355e6
1.7233300000000003e-5,1.076e6
1.72464e-5,996102.9999999999
1.7259400000000003e-5,923337.0000000001
1.72725e-5,857152.9999999999
1.7285600000000003e-5,797002.0
1.72987e-5,742351.0
1.73118e-5,692686.0
1.73249e-5,647527.0
1.7338000000000002e-5,606428.0
1.73511e-5,568978.0
1.7364100000000002e-5,534805.0
1.73772e-5,503573.0
1.7390300000000002e-5,474978.00000000006
1.74034e-5,448750.0
1.7416500000000002e-5,424648.0
1.7429600000000003e-5,402459.0
1.7445900000000002e-5,377121.0
1.74607e-5,356347.0
1.7475400000000002e-5,337282.0
1.7495e-5,314212.0
1.75146e-5,293494.0
1.7535600000000002e-5,273641.0
1.75565e-5,255798.0
1.75775e-5,239703.0
1.75984e-5,225132.99999999997
1.7619300000000003e-5,211900.00000000003
1.76403e-5,199843.0
1.76612e-5,188825.0
1.76822e-5,178730.0
1.77083e-5,167256.0
1.77345e-5,156897.0
1.77607e-5,147513.0
1.7786900000000004e-5,138984.0
1.7813000000000004e-5,131209.0
1.78392e-5,124101.0
1.78654e-5,117585.0
1.7891600000000003e-5,111596.99999999999
1.79231e-5,105001.00000000001
1.79547e-5,99008.2
1.7986200000000004e-5,93545.4
1.8017800000000002e-5,88551.90000000001
1.80493e-5,83975.00000000001
1.80809e-5,79769.4
1.8128200000000004e-5,74072.4
1.8176000000000004e-5,68966.59999999999
1.8224e-5,64394.9
1.8272e-5,60303.7
1.832e-5,56627.6
1.8368e-5,53311.200000000004
1.84162e-5,50294.5
1.84649e-5,47529.8
1.85135e-5,45012.600000000006
1.85622e-5,42714.299999999996
1.8627100000000003e-5,39949.2
1.86925e-5,37465.299999999996
1.8758300000000003e-5,35226.4
1.88241e-5,33214.0
1.88899e-5,31397.6
1.8956200000000003e-5,29741.2
1.90229e-5,28227.1
1.90897e-5,26848.9
1.9156400000000002e-5,25591.0
1.9223600000000003e-5,24431.8
1.9325100000000002e-5,22859.5
1.94267e-5,21472.000000000004
1.9529100000000002e-5,20230.3
1.96321e-5,19120.0
1.9735100000000004e-5,18127.7
1.9839500000000002e-5,17225.1
1.9943900000000004e-5,16413.199999999997
2.00135e-5,15916.300000000001
2.0154700000000002e-5,15004.2
2.0295800000000003e-5,14203.1
2.0439e-5,13487.6
2.05822e-5,12854.000000000002
2.07274e-5,12281.5
2.0872600000000004e-5,11771.5
2.1019800000000005e-5,11310.500000000002
2.1167e-5,10898.4
2.1391000000000002e-5,10352.5
2.16171e-5,9887.61
2.1845300000000002e-5,9494.79
2.2075600000000003e-5,9169.230000000001
2.23092e-5,8909.81
2.2466e-5,8777.6
2.2623900000000002e-5,8682.57
2.2779500000000004e-5,8633.150000000001
2.2856200000000003e-5,8628.69
2.29771e-5,8655.23
2.3098e-5,8733.94
2.3178600000000002e-5,8824.52
2.3260400000000002e-5,8957.34
2.3342100000000005e-5,9143.99
2.34035e-5,9330.09
2.3464800000000003e-5,9567.76
2.3520200000000002e-5,9839.68
2.3563800000000003e-5,10102.3
2.36074e-5,10419.0
2.3651e-5,10803.7
2.3694600000000002e-5,11275.0
2.37236e-5,11649.9
2.3755700000000004e-5,12133.400000000001
2.3781900000000003e-5,12596.400000000001
2.38082e-5,13132.8
2.38345e-5,13758.1
2.3860800000000004e-5,14492.400000000001
2.3878300000000005e-5,15054.7
2.38964e-5,15709.0
2.39145e-5,16448.8
2.39327e-5,17288.3
2.3950800000000005e-5,18243.6
2.39689e-5,19333.8
2.3987e-5,20580.3
2.3999100000000005e-5,21509.999999999996
2.4011200000000005e-5,22527.7
2.4023300000000004e-5,23641.600000000002
2.4035400000000004e-5,24860.3
2.40474e-5,26192.600000000002
2.40595e-5,27647.6
2.4071600000000005e-5,29234.0
2.4083700000000005e-5,30960.3
2.4095800000000004e-5,32834.4
2.4107900000000003e-5,34863.4
2.41199e-5,37052.8
2.4132e-5,39406.7
2.4144100000000005e-5,41927.0
2.4162200000000004e-5,46017.299999999996
2.41803e-5,50465.1
2.41985e-5,55237.7
2.4222600000000004e-5,62012.1
2.4284200000000004e-5,80026.7
2.43084e-5,86598.7
2.4326500000000005e-5,91026.90000000001
2.4341000000000003e-5,94151.4
2.43579e-5,97228.6
2.4372400000000004e-5,99310.8
2.4384500000000003e-5,100616.0
2.4401600000000004e-5,101750.99999999999
2.44155e-5,102042.00000000001
2.4430400000000002e-5,101709.99999999999
2.44425e-5,100959.0
2.4454600000000005e-5,99791.79999999999
2.4472700000000004e-5,97305.2
2.4489000000000002e-5,94382.09999999999
2.4505300000000004e-5,90898.1
2.4522300000000004e-5,86796.79999999999
2.4540400000000003e-5,81981.90000000001
2.4576600000000005e-5,71614.9
2.4612900000000003e-5,61144.5
2.4637e-5,54528.4
2.4655200000000004e-5,49884.00000000001
2.4673300000000003e-5,45564.600000000006
2.4691400000000002e-5,41597.299999999996
2.47035e-5,39153.799999999996
2.4715600000000004e-5,36871.299999999996
2.4727600000000004e-5,34747.2
2.4739700000000003e-5,32777.2
2.4751800000000002e-5,30955.300000000003
2.4763900000000002e-5,29274.399999999998
2.4776e-5,27726.899999999998
2.4788100000000004e-5,26304.5
2.4800100000000003e-5,24998.7
2.4812200000000003e-5,23800.8
2.4824300000000002e-5,22702.7
2.48424e-5,21224.6
2.4860600000000004e-5,19926.600000000002
2.4878700000000003e-5,18785.3
2.4896800000000002e-5,17779.5
2.49143e-5,16918.6
2.4931500000000003e-5,16164.9
2.4948700000000004e-5,15490.699999999999
2.4971700000000004e-5,14697.499999999998
2.4994700000000003e-5,14006.5
2.50218e-5,13297.6
2.5049000000000004e-5,12686.3
2.5076200000000002e-5,12155.199999999999
2.51034e-5,11690.3
2.51306e-5,11280.8
2.51714e-5,10751.699999999999
2.5212100000000002e-5,10305.0
2.5249000000000005e-5,9958.15
2.53042e-5,9517.99
2.5359500000000003e-5,9153.42
2.5414800000000003e-5,8847.41
2.5470000000000005e-5,8587.6
2.5532300000000003e-5,8339.04
2.56084e-5,8084.889999999999
2.56845e-5,7873.88
2.57911e-5,7634.11
2.58927e-5,7453.03
2.6019600000000004e-5,7279.68
2.61718e-5,7132.86
2.6583000000000003e-5,6793.86
2.6786e-5,6684.32
2.7029700000000003e-5,6603.19
2.7315200000000002e-5,6551.2
2.7562600000000003e-5,6536.08
2.78481e-5,6549.9400000000005
2.8140400000000003e-5,6598.58
2.8437500000000003e-5,6685.18
2.8737300000000004e-5,6815.0599999999995
2.9041400000000003e-5,6997.84
2.9245600000000003e-5,7154.72
2.9451100000000003e-5,7345.5599999999995
2.96582e-5,7576.93
2.9866600000000003e-5,7857.280000000001
3.0076600000000003e-5,8197.55
3.02351e-5,8500.89
3.03937e-5,8852.06
3.05545e-5,9265.869999999999
3.07153e-5,9748.710000000001
3.0822500000000005e-5,10115.5
3.09312e-5,10530.4
3.10399e-5,10995.4
3.11487e-5,11518.5
3.12574e-5,12108.699999999999
3.136760000000001e-5,12786.699999999999
3.1477900000000006e-5,13558.699999999999
3.1560500000000004e-5,14209.7
3.16432e-5,14931.8
3.17263e-5,15739.4
3.18101e-5,16650.5
3.1894e-5,17673.3
3.1977900000000004e-5,18825.9
3.2061700000000005e-5,20130.7
3.21176e-5,21098.2
3.2173e-5,22144.300000000003
3.22278e-5,23277.100000000002
3.22827e-5,24517.899999999998
3.233760000000001e-5,25880.7
3.2392400000000005e-5,27381.8
3.2447300000000004e-5,29040.499999999996
3.25022e-5,30879.3
3.2557e-5,32924.7
3.2604900000000004e-5,34901.0
3.2645700000000005e-5,36748.3
3.2686500000000006e-5,38763.0
3.27273e-5,40965.99999999999
3.27681e-5,43381.5
3.2808900000000004e-5,46037.7
3.2849700000000005e-5,48967.7
3.28905e-5,52210.4
3.2926600000000004e-5,55376.200000000004
3.2957900000000005e-5,58386.3
3.29893e-5,61665.299999999996
3.30207e-5,65246.6
3.30521e-5,69168.2
3.30835e-5,73475.2
3.3114900000000004e-5,78219.8
3.3146300000000005e-5,83464.1
3.3173700000000004e-5,88520.2
3.31973e-5,93246.90000000001
3.3220800000000006e-5,98380.9
3.32443e-5,103970.99999999999
3.32679e-5,110074.99999999999
3.3291400000000005e-5,116758.0
3.3315e-5,124098.0
3.33385e-5,132187.0
3.33581e-5,139576.0
3.33817e-5,149332.0
3.34052e-5,160201.0
3.34287e-5,172361.0
3.34444e-5,181291.0
3.34601e-5,190967.0
3.34758e-5,201474.99999999997
