E(MeV),xs(mb)
1.0e-11,511106.0
1.03223e-11,503089.00000000006
1.06549e-11,495202.0
1.0998399999999998e-11,487436.0
1.13527e-11,479796.0
1.1718599999999999e-11,472274.0
1.2096199999999998e-11,464872.99999999994
1.24861e-11,457587.0
1.2888399999999999e-11,450418.0
1.3303799999999998e-11,443360.0
1.37325e-11,436415.00000000006
1.41751e-11,429579.0
1.4631799999999997e-11,422851.99999999994
1.51034e-11,416230.0
1.5590099999999998e-11,409713.99999999994
1.6092599999999998e-11,403300.00000000006
1.66111e-11,396989.0
1.71465e-11,390775.0
1.7699e-11,384662.0
1.8269399999999998e-11,378644.0
1.88581e-11,372723.0
1.94659e-11,366893.0
2.00931e-11,361158.0
2.0740699999999998e-11,355512.0
2.1408999999999998e-11,349957.0
2.2099099999999997e-11,344488.0
2.28111e-11,339107.0
2.3546399999999998e-11,333810.0
2.4305099999999997e-11,328599.0
2.50884e-11,323469.0
2.5896799999999997e-11,318421.0
2.67315e-11,313452.0
2.75928e-11,308564.0
2.8482199999999998e-11,303751.0
2.93999e-11,299016.0
3.0347499999999995e-11,294355.0
3.13253e-11,289770.0
3.2335e-11,285256.0
3.33769e-11,280814.0
3.44526e-11,276443.0
3.55627e-11,272141.0
3.67089e-11,267908.0
3.7891799999999997e-11,263742.0
3.9113e-11,259642.00000000003
4.0373400000000003e-11,255608.0
4.1674599999999996e-11,251637.00000000003
4.3017399999999996e-11,247730.0
4.440389999999999e-11,243885.0
4.58347e-11,240102.0
4.7311899999999994e-11,236378.00000000003
4.883639999999999e-11,232715.0
5.0410399999999995e-11,229109.0
5.20348e-11,225561.0
5.37119e-11,222070.0
5.54426e-11,218634.0
5.7229499999999995e-11,215253.0
5.907359999999999e-11,211927.00000000003
6.09775e-11,208653.00000000003
6.29424e-11,205433.00000000003
6.497099999999999e-11,202263.0
6.70645e-11,199144.0
6.9226e-11,196075.0
7.145659999999999e-11,193056.0
7.37596e-11,190084.0
7.61364e-11,187161.0
7.85902e-11,184284.0
8.11227e-11,181453.0
8.37372e-11,178668.0
8.643549999999999e-11,175928.0
8.922119999999998e-11,173231.0
9.209619999999999e-11,170579.0
9.506439999999999e-11,167968.0
9.81277e-11,165400.0
1.01291e-10,162873.0
1.04554e-10,160387.0
1.07924e-10,157941.0
1.11402e-10,155535.0
1.1499200000000001e-10,153167.0
1.1869700000000001e-10,150838.0
1.22523e-10,148546.0
1.26471e-10,146291.0
1.30547e-10,144073.0
1.34754e-10,141891.0
1.3909700000000002e-10,139743.0
1.43579e-10,137632.0
1.48207e-10,135553.0
1.52982e-10,133509.0
1.57913e-10,131498.0
1.6300100000000001e-10,129519.99999999999
1.68254e-10,127574.00000000001
1.73676e-10,125659.00000000001
1.79274e-10,123776.0
1.8505000000000002e-10,121923.0
1.91014e-10,120100.0
1.97169e-10,118307.99999999999
2.03524e-10,116544.0
2.1008200000000003e-10,114809.0
2.16853e-10,113101.99999999999
2.2384e-10,111423.99999999999
2.31055e-10,109772.0
2.385e-10,108148.0
2.46187e-10,106549.99999999999
2.5412e-10,104979.0
2.6231e-10,103433.0
2.70762e-10,101912.0
2.7948900000000003e-10,100417.0
2.88494e-10,98945.6
2.9779300000000004e-10,97498.40000000001
3.07388e-10,96075.2
3.1729500000000004e-10,94675.0
3.27519e-10,93298.1
3.38075e-10,91943.5
3.4896900000000003e-10,90611.5
3.60977e-10,89214.5
3.73399e-10,87842.0
3.86248e-10,86493.5
3.99539e-10,85168.59999999999
4.13288e-10,83866.9
4.2751e-10,82588.00000000001
4.42221e-10,81331.5
4.57438e-10,80097.0
4.73179e-10,78884.1
4.89462e-10,77692.4
5.063049999999999e-10,76521.6
5.23727e-10,75371.3
5.41749e-10,74241.09999999999
5.60392e-10,73130.7
5.796750000000001e-10,72039.7
5.99623e-10,70967.8
6.202560000000001e-10,69914.6
6.416e-10,68879.90000000001
6.63678e-10,67863.2
6.865160000000001e-10,66864.2
7.1014e-10,65882.8
7.34577e-10,64918.4
7.598550000000001e-10,63970.9
7.86002e-10,63039.899999999994
8.13049e-10,62125.1
8.410270000000001e-10,61226.3
8.699680000000001e-10,60343.1
8.999050000000001e-10,59475.3
9.308719999999999e-10,58622.6
9.62904e-10,57784.700000000004
9.96039e-10,56961.399999999994
1.0303100000000001e-9,56152.4
1.0657700000000001e-9,55357.399999999994
1.1024400000000002e-9,54576.200000000004
1.14038e-9,53808.6
1.17962e-9,53054.3
1.22021e-9,52313.1
1.2622e-9,51584.700000000004
1.30564e-9,50869.0
1.3505600000000001e-9,50165.6
1.3970400000000002e-9,49474.299999999996
1.44817e-9,48753.0
1.5011699999999999e-9,48044.9
1.55612e-9,47349.7
1.61307e-9,46667.4
1.6721200000000002e-9,45997.5
1.73331e-9,45339.9
1.7967600000000001e-9,44694.3
1.86252e-9,44060.6
1.93069e-9,43438.4
2.00135e-9,42827.700000000004
2.07461e-9,42228.0
2.15054e-9,41639.4
2.22925e-9,41061.4
2.31084e-9,40494.0
2.3954200000000004e-9,39937.0
2.48309e-9,39390.1
2.5739800000000002e-9,38853.200000000004
2.66818e-9,38326.1
2.76585e-9,37808.5
2.86707e-9,37300.4
2.9720200000000002e-9,36801.5
3.08079e-9,36311.7
3.1935600000000003e-9,35830.799999999996
3.3104300000000005e-9,35358.6
3.4316100000000003e-9,34895.0
3.5647400000000002e-9,34413.299999999996
3.70303e-9,33940.9
3.84669e-9,33477.6
3.99592e-9,33023.1
4.15094e-9,32577.4
4.31198e-9,32140.2
4.47926e-9,31711.399999999998
4.65304e-9,31290.8
4.83355e-9,30878.199999999997
5.02107e-9,30473.6
5.21586e-9,30076.800000000003
5.418210000000001e-9,29687.5
5.62841e-9,29305.7
5.84676e-9,28931.100000000002
6.07359e-9,28563.800000000003
6.30921e-9,28203.5
6.5539800000000006e-9,27850.0
6.82264e-9,27484.3
7.1023400000000005e-9,27125.8
7.39348e-9,26774.7
7.696580000000001e-9,26430.5
8.01208e-9,26093.4
8.34054e-9,25762.9
8.682430000000001e-9,25439.2
9.03838e-9,25121.899999999998
9.40888e-9,24811.100000000002
9.79461e-9,24506.399999999998
1.01961e-8,24208.0
1.06141e-8,23915.5
1.10492e-8,23628.9
1.15022e-8,23348.0
1.1999e-8,23058.5
1.25174e-8,22775.0
1.3058099999999999e-8,22497.600000000002
1.36222e-8,22226.0
1.42106e-8,21960.1
1.4824500000000001e-8,21699.8
1.5464800000000002e-8,21444.899999999998
1.61329e-8,21195.5
1.6829799999999998e-8,20951.300000000003
1.75568e-8,20712.199999999997
1.83539e-8,20466.600000000002
1.91873e-8,20226.4
2.00585e-8,19991.5
2.09693e-8,19761.8
2.1921400000000003e-8,19537.2
2.29168e-8,19317.5
2.39573e-8,19102.7
2.50451e-8,18892.6
2.52522e-8,18854.1
2.5299999999999998e-8,18845.3
2.65047e-8,18631.2
2.77669e-8,18422.1
2.9089100000000002e-8,18217.8
3.04743e-8,18018.1
3.1925400000000005e-8,17823.0
3.34456e-8,17632.399999999998
3.5038299999999996e-8,17446.2
3.67845e-8,17256.100000000002
3.86176e-8,17070.6
4.0542299999999996e-8,16889.5
4.25626e-8,16712.8
4.4683900000000006e-8,16540.3
4.69107e-8,16371.9
4.93527e-8,16200.4
5.1922e-8,16033.2
5.46249e-8,15870.1
5.74686e-8,15711.1
6.04603e-8,15556.000000000002
6.36078e-8,15404.7
6.70609e-8,15251.1
7.07012e-8,15101.500000000002
7.45394e-8,14955.7
7.85856e-8,14813.7
8.285180000000001e-8,14675.199999999999
8.753439999999999e-8,14535.1
9.24815e-8,14398.599999999999
9.770830000000001e-8,14265.699999999999
1.0322999999999999e-7,14136.2
1.09295e-7,14005.4
1.15717e-7,13878.1
1.22516e-7,13754.3
1.2998799999999999e-7,13629.4
1.37917e-7,13508.0
1.4632899999999999e-7,13389.9
1.55254e-7,13275.1
1.6507299999999999e-7,13159.6
1.75512e-7,13047.4
1.86612e-7,12938.300000000001
1.98833e-7,12828.599999999999
2.11855e-7,12722.0
2.2572999999999997e-7,12618.5
2.41021e-7,12514.6
2.5735e-7,12413.7
2.75366e-7,12312.7
2.94644e-7,12214.6
3.1527099999999996e-7,12119.4
3.3805499999999997e-7,12024.300000000001
3.62488e-7,11932.1
3.8868399999999996e-7,11842.8
4.16776e-7,11756.4
4.46896e-7,11673.199999999999
4.78182e-7,11596.0
5.094979999999999e-7,11527.7
5.39434e-7,11471.1
5.651209999999999e-7,11430.7
5.870449999999999e-7,11404.2
6.04683e-7,11391.1
6.149989999999999e-7,11388.5
6.27156e-7,11392.4
6.365099999999999e-7,11402.9
6.44637e-7,11419.699999999999
6.51487e-7,11441.699999999999
6.57021e-7,11466.7
6.61203e-7,11491.1
6.6541e-7,11521.699999999999
6.696449999999999e-7,11560.1
6.72483e-7,11591.0
6.75333e-7,11626.9
6.78195e-7,11668.5
6.810699999999999e-7,11716.7
6.839559999999999e-7,11772.199999999999
6.86855e-7,11836.0
6.89766e-7,11908.8
6.92689e-7,11991.199999999999
6.95624e-7,12083.4
6.985719999999999e-7,12185.3
7.015329999999999e-7,12296.400000000001
7.04506e-7,12415.400000000001
7.1049e-7,12667.8
7.1501e-7,12856.5
7.180399999999999e-7,12974.1
7.20322e-7,13054.699999999999
7.22611e-7,13126.199999999999
7.24139e-7,13167.9
7.256739999999999e-7,13204.3
7.272079999999999e-7,13234.699999999999
7.28749e-7,13258.9
7.3029e-7,13276.300000000001
7.31837e-7,13286.9
7.333849999999999e-7,13290.2
7.35228e-7,13284.800000000001
7.36784e-7,13272.4
7.38344e-7,13252.8
7.39907e-7,13226.3
7.414729999999999e-7,13193.2
7.43043e-7,13153.900000000001
7.44615e-7,13108.800000000001
7.4698e-7,13031.4
7.49354e-7,12944.1
7.517350000000001e-7,12849.0
7.54921e-7,12713.699999999999
7.62943e-7,12363.4
7.661759999999999e-7,12228.8
7.69423e-7,12101.900000000001
7.71869e-7,12012.7
7.74322e-7,11929.300000000001
7.767809999999999e-7,11851.9
7.792469999999999e-7,11780.4
7.81724e-7,11714.800000000001
7.84208e-7,11654.800000000001
7.85866e-7,11617.900000000001
7.891969999999999e-7,11550.5
7.92541e-7,11491.3
7.959e-7,11439.2
7.992729999999999e-7,11393.3
8.026609999999999e-7,11352.800000000001
8.077699999999999e-7,11300.5
8.129089999999999e-7,11256.5
8.180839999999999e-7,11218.9
8.25033e-7,11176.6
8.320399999999999e-7,11141.2
8.40882e-7,11104.0
8.51618e-7,11066.800000000001
8.661469999999999e-7,11025.8
8.827899999999999e-7,10987.4
9.05477e-7,10944.3
9.346550000000001e-7,10898.099999999999
9.7503e-7,10844.1
1.0256799999999999e-6,10785.7
1.1078099999999999e-6,10703.400000000001
1.24793e-6,10583.3
1.48674e-6,10413.1
1.89985e-6,10177.199999999999
2.58568e-6,9872.87
3.54373e-6,9539.26
4.857e-6,9169.2
6.56402e-6,8769.67
8.626289999999998e-6,8360.16
1.1100500000000002e-5,7939.339999999999
1.3889600000000002e-5,7530.490000000001
1.70177e-5,7134.14
2.0561300000000003e-5,6746.63
2.4325500000000003e-5,6390.43
2.8378500000000003e-5,6057.54
3.28748e-5,5737.05
3.7818700000000004e-5,5430.08
4.350600000000001e-5,5122.620000000001
5.04017e-5,4794.91
6.35076e-5,4230.38
6.53122e-5,4168.4400000000005
6.64473e-5,4151.169999999999
6.715040000000001e-5,4162.25
6.76197e-5,4187.69
6.80896e-5,4237.79
6.84451e-5,4301.51
6.86861e-5,4363.55
6.8927e-5,4446.93
6.916800000000001e-5,4559.42
6.936130000000001e-5,4678.12
6.950680000000001e-5,4789.82
6.965230000000001e-5,4926.179999999999
6.97978e-5,5093.73
6.99327e-5,5284.4800000000005
7.00569e-5,5498.64
7.01501e-5,5689.48
7.02433e-5,5912.16
7.033640000000001e-5,6173.47
7.04296e-5,6482.1
7.049170000000001e-5,6719.52
7.055380000000002e-5,6987.0
7.0616e-5,7289.469999999999
7.06781e-5,7632.98
7.07402e-5,8024.900000000001
7.080230000000001e-5,8474.4
7.08489e-5,8856.1
7.08989e-5,9315.97
7.09507e-5,9855.27
7.10025e-5,10471.0
7.1037e-5,10931.1
7.10715e-5,11436.800000000001
7.1106e-5,11994.400000000001
7.114050000000001e-5,12611.1
7.11716e-5,13223.6
7.12026e-5,13898.3
7.123370000000001e-5,14643.699999999999
7.126470000000001e-5,15470.2
7.12958e-5,16390.0
7.132690000000001e-5,17418.0
7.135790000000001e-5,18572.4
7.13812e-5,19534.3
7.1401e-5,20427.9
7.14252e-5,21620.8
7.14494e-5,22945.8
7.14735e-5,24424.800000000003
7.14977e-5,26084.6
7.151580000000001e-5,27468.4
7.15339e-5,28990.6
7.155200000000001e-5,30672.4
7.15701e-5,32539.699999999997
7.158220000000001e-5,33903.1
7.16002e-5,36130.8
7.161360000000001e-5,37983.3
7.16271e-5,40015.6
7.16405e-5,42253.2
7.1654e-5,44726.100000000006
7.16674e-5,47469.5
7.168090000000001e-5,50524.1
7.169440000000001e-5,53937.7
7.17078e-5,57765.6
7.172130000000001e-5,62071.899999999994
7.17327e-5,66143.7
7.174300000000001e-5,70230.7
7.17534e-5,74728.59999999999
7.17637e-5,79684.0
7.17741e-5,85148.3
7.17844e-5,91177.8
7.17948e-5,97833.6
7.18051e-5,105182.0
7.18155e-5,113294.0
7.18258e-5,122248.0
7.183620000000001e-5,132123.0
7.18445e-5,140745.0
7.18528e-5,150058.0
7.186100000000001e-5,160110.0
7.18693e-5,170950.0
7.18776e-5,182628.0
7.18859e-5,195196.0
7.189420000000001e-5,208704.0
7.19025e-5,223203.0
7.19107e-5,238746.0
7.191900000000001e-5,255381.0
7.192900000000001e-5,277008.0
7.193800000000001e-5,297881.0
7.194700000000001e-5,320212.0
7.19559e-5,344050.0
7.19649e-5,369438.0
7.19739e-5,396412.0
7.198730000000001e-5,439900.99999999994
7.199970000000001e-5,483054.0
7.20132e-5,533846.0
7.202340000000001e-5,574328.0
7.203690000000001e-5,631376.0
7.205460000000001e-5,710833.0
7.207530000000001e-5,810178.0
7.21001e-5,936089.0
7.21498e-5,1.1948e6
7.21719e-5,1.30462e6
7.219400000000001e-5,1.40581e6
7.22106e-5,1.47371e6
7.22271e-5,1.53302e6
7.224370000000001e-5,1.58235e6
7.22602e-5,1.62049e6
7.227680000000001e-5,1.64651e6
7.229340000000001e-5,1.65976e6
7.23019e-5,1.66148e6
7.231440000000001e-5,1.65774e6
7.233010000000001e-5,1.64251e6
7.234420000000001e-5,1.61922e6
7.23607e-5,1.58077e6
7.237730000000001e-5,1.53131e6
7.23939e-5,1.47206e6
7.241040000000001e-5,1.40445e6
7.243250000000001e-5,1.30399e6
7.24601e-5,1.16729e6
7.25153e-5,884451.0
7.253540000000001e-5,786512.0
7.25547e-5,697014.0
7.256850000000001e-5,636774.0
7.258190000000001e-5,581324.0
7.25954e-5,529308.0
7.26089e-5,480833.0
7.26223e-5,435942.99999999994
7.263130000000001e-5,408000.99999999994
7.264230000000001e-5,375759.0
7.265340000000001e-5,345835.0
7.266440000000001e-5,318157.0
7.26755e-5,292640.0
7.268650000000001e-5,269184.0
7.26975e-5,247684.00000000003
7.270860000000001e-5,228026.99999999997
7.271960000000001e-5,210096.99999999997
7.273e-5,194750.0
7.27403e-5,180722.0
7.275070000000001e-5,167916.0
7.2761e-5,156241.0
7.277140000000001e-5,145606.0
7.278170000000002e-5,135926.0
7.279210000000001e-5,127119.0
7.28025e-5,119107.99999999999
7.281280000000001e-5,111823.0
7.28232e-5,105195.0
7.28349e-5,98399.3
7.284460000000001e-5,93318.5
7.28542e-5,88657.6
7.28639e-5,84377.70000000001
7.28784e-5,78594.9
7.289290000000001e-5,73482.2
7.290740000000001e-5,68946.5
7.29219e-5,64907.5
7.293630000000002e-5,61296.299999999996
7.29508e-5,58054.2
7.29653e-5,55131.1
7.297980000000001e-5,52484.3
7.299880000000001e-5,49376.7
7.302e-5,46308.2
7.30413e-5,43596.700000000004
7.306250000000001e-5,41182.99999999999
7.30837e-5,39020.1
7.31049e-5,37070.5
7.312610000000001e-5,35303.9
7.31544e-5,33190.9
7.31827e-5,31313.100000000002
7.321100000000001e-5,29633.699999999997
7.324550000000002e-5,27812.199999999997
7.328010000000001e-5,26200.600000000002
7.331460000000001e-5,24766.0
7.33491e-5,23481.800000000003
7.33836e-5,22326.600000000002
7.34181e-5,21282.899999999998
7.34526e-5,20336.1
7.350440000000001e-5,19071.4
7.35561e-5,17964.6
7.36079e-5,16989.2
7.36597e-5,16124.6
7.37114e-5,15353.9
7.37632e-5,14663.6
7.382870000000001e-5,13887.0
7.38943e-5,13202.9
7.395990000000001e-5,12596.5
7.402540000000001e-5,12056.0
7.4091e-5,11571.9
7.41894e-5,10934.5
7.428770000000001e-5,10385.5
7.43912e-5,9885.34
7.449480000000001e-5,9450.55
7.459830000000001e-5,9069.789999999999
7.47018e-5,8734.09
7.483990000000002e-5,8344.44
7.49641e-5,8040.509999999999
7.50883e-5,7773.150000000001
7.525400000000001e-5,7463.61
7.54196e-5,7197.71
7.56356e-5,6902.8
7.58353e-5,6671.74
7.603500000000001e-5,6472.68
7.630130000000001e-5,6246.870000000001
7.65676e-5,6056.8099999999995
7.695500000000001e-5,5828.839999999999
7.734230000000001e-5,5644.0
7.77374e-5,5488.41
7.814800000000001e-5,5353.37
7.86954e-5,5205.0599999999995
7.925050000000001e-5,5082.02
8.008710000000001e-5,4933.46
8.093150000000001e-5,4814.9800000000005
8.207330000000002e-5,4688.54
8.32312e-5,4587.04
8.500090000000001e-5,4465.4
8.74162e-5,4339.179999999999
9.05299e-5,4215.4800000000005
9.44159e-5,4095.7100000000005
9.985790000000001e-5,3963.87
0.000106359,3837.75
0.000114875,3703.36
0.000124948,3572.7799999999997
0.00013763300000000002,3437.65
0.000152473,3308.3
0.000168925,3190.3100000000004
0.00018895900000000002,3072.87
0.00021201800000000002,2962.9900000000002
0.000238588,2860.3900000000003
0.000246144,2837.7599999999998
0.000246885,2840.9900000000002
0.000247145,2851.1600000000003
0.000247279,2870.91
0.00024737200000000004,2902.12
0.000247452,2950.08
0.00024750600000000004,2997.9900000000002
0.000247559,3062.3300000000004
0.00024760900000000003,3140.19
0.000247659,3236.9
0.00024770900000000004,3353.24
0.000247759,3488.51
0.00024782600000000004,3693.54
0.00024796999999999997,4169.660000000001
0.000248024,4325.700000000001
0.000248069,4435.679999999999
0.000248118,4522.58
0.000248161,4567.86
0.0002482,4581.44
0.00024824199999999997,4565.53
0.000248283,4519.49
0.000248321,4454.49
0.00024836000000000004,4364.55
0.000248414,4215.55
0.000248507,3911.6
0.000248607,3584.15
0.00024866700000000005,3410.2999999999997
0.000248717,3284.94
0.000248767,3179.05
0.000248822,3084.82
0.000248866,3025.7999999999997
0.00024893100000000003,2959.02
0.000248974,2926.5699999999997
0.000249041,2891.14
0.00024910800000000006,2868.54
0.00024924100000000004,2845.75
0.00024950199999999997,2832.81
0.000251084,2820.2400000000002
0.00027877800000000003,2738.44
0.00031862,2644.0800000000004
0.000337318,2608.34
0.000338092,2612.5600000000004
0.00033827900000000003,2621.6
0.000338412,2639.64
0.000338512,2666.78
0.00033859900000000003,2705.58
0.000338679,2758.62
0.000338759,2831.79
0.000338826,2909.54
0.00033889300000000005,3002.1
0.00033899300000000005,3162.92
0.000339144,3416.89
0.00033922400000000006,3530.03
0.00033928600000000006,3594.9300000000003
0.000339342,3631.83
0.0003394,3644.58
0.000339458,3631.2799999999997
0.000339514,3593.87
0.000339576,3528.5
0.00033965600000000003,3414.8900000000003
0.00033987400000000005,3050.8
0.000339941,2951.55
0.000340007,2866.18
0.000340067,2802.36
0.00034014700000000006,2736.04
0.00034022800000000004,2688.75
0.00034032100000000004,2652.58
0.000340388,2635.9900000000002
0.000340521,2617.4
0.000340802,2605.51
0.00034335100000000004,2595.2799999999997
0.000393123,2510.43
0.00046457800000000005,2412.0099999999998
0.000563379,2288.91
0.0005842190000000001,2252.0600000000004
0.000595404,2219.8199999999997
0.000600638,2195.33
0.000604195,2170.4300000000003
0.000607316,2137.18
0.000609397,2103.43
0.000611038,2064.46
0.000612208,2025.1999999999998
0.000613118,1984.2900000000002
0.000614039,1930.07
0.0006149390000000001,1869.03
0.000615139,1860.82
0.000615239,1860.6100000000001
0.000615339,1865.8799999999999
0.0006154390000000001,1881.23
0.0006155140000000001,1904.3000000000002
0.000615564,1928.28
0.000615614,1961.98
0.000615654,1998.15
0.000615699,2051.5099999999998
0.0006157350000000001,2105.69
0.000615771,2172.8999999999996
0.000615806,2255.9
0.00061583,2321.5699999999997
0.0006158540000000001,2396.77
0.000615878,2482.69
0.0006159010000000001,2580.65
0.000615925,2692.11
0.000615949,2818.64
0.000615973,2961.98
0.0006159960000000001,3123.9900000000002
0.00061602,3306.69
0.000616044,3512.25
0.000616068,3742.99
0.000616089,3979.93
0.00061611,4218.84
0.0006161290000000001,4480.72
0.0006161500000000001,4767.26
0.00061617,5080.2699999999995
0.000616189,5421.56
0.00061621,5793.04
0.0006162300000000001,6196.64
0.00061625,6634.34
0.00061627,7108.16
0.00061629,7620.099999999999
0.00061631,8172.2
0.00061633,8766.48
0.00061635,9404.949999999999
0.0006163700000000001,10089.5
0.00061639,10822.099999999999
0.000616412,11706.0
0.0006164370000000001,12765.1
0.000616462,13908.1
0.000616487,15137.8
0.000616512,16456.4
0.000616537,17865.7
0.000616562,19367.0
0.000616587,20960.7
0.0006166120000000001,22646.8
0.00061665,25346.8
0.0006166870000000001,28245.6
0.000616725,31332.0
0.0006167620000000001,34589.6
0.000616817,39584.8
0.0006168850000000001,46130.5
0.0006170020000000001,57601.2
0.0006170600000000001,63040.799999999996
0.00061711,67413.5
0.000617152,70770.9
0.000617192,73636.6
0.000617232,76126.0
0.00061728,78551.90000000001
0.000617317,79958.3
0.0006173600000000001,81073.79999999999
0.0006174010000000001,81576.0
0.000617416,81623.7
0.000617461,81325.2
0.000617493,80714.6
0.0006175379999999999,79321.90000000001
0.000617575,77712.8
0.0006176110000000001,75781.2
0.0006176560000000001,72925.70000000001
0.000617696,70016.9
0.000617756,65123.3
0.0006178160000000001,59765.9
0.00061799,43375.399999999994
0.000618053,37747.1
0.0006181030000000001,33506.3
0.00061814,30512.5
0.000618178,27696.0
0.0006182150000000001,25067.7
0.000618253,22633.7
0.0006182780000000001,21120.3
0.000618303,19694.2
0.000618328,18354.600000000002
0.0006183569999999999,16918.899999999998
0.0006183810000000001,15787.500000000002
