E(MeV),xs(mb)
1.0e-11,2.94769e6
1.03223e-11,2.90135e6
1.06549e-11,2.85576e6
1.0998399999999998e-11,2.81087e6
1.13527e-11,2.76671e6
1.1718599999999999e-11,2.72322e6
1.2096199999999998e-11,2.68043e6
1.24861e-11,2.63831e6
1.2888399999999999e-11,2.59686e6
1.3303799999999998e-11,2.55605e6
1.37325e-11,2.5159e6
1.41751e-11,2.47636e6
1.4631799999999997e-11,2.43746e6
1.51034e-11,2.39917e6
1.5590099999999998e-11,2.36148e6
1.6092599999999998e-11,2.32438e6
1.66111e-11,2.28788e6
1.71465e-11,2.25194e6
1.7699e-11,2.21658e6
1.8269399999999998e-11,2.18176e6
1.88581e-11,2.14751e6
1.94659e-11,2.11378e6
2.00931e-11,2.0806e6
2.0740699999999998e-11,2.04792e6
2.1408999999999998e-11,2.01578e6
2.2099099999999997e-11,1.98413e6
2.28111e-11,1.95299e6
2.3546399999999998e-11,1.92233e6
2.4305099999999997e-11,1.89216e6
2.50884e-11,1.86246e6
2.5896799999999997e-11,1.83324e6
2.67315e-11,1.80447e6
2.75928e-11,1.77616e6
2.8482199999999998e-11,1.74829e6
2.93999e-11,1.72087e6
3.0347499999999995e-11,1.69387e6
3.13253e-11,1.66731e6
3.2335e-11,1.64116e6
3.33769e-11,1.61542e6
3.44526e-11,1.59009e6
3.55627e-11,1.56516e6
3.67089e-11,1.54063e6
3.7891799999999997e-11,1.51648e6
3.9113e-11,1.49271e6
4.0373400000000003e-11,1.46932e6
4.1674599999999996e-11,1.4463e6
4.3017399999999996e-11,1.42364e6
4.440389999999999e-11,1.40134e6
4.58347e-11,1.37939e6
4.7311899999999994e-11,1.35779e6
4.883639999999999e-11,1.33653e6
5.0410399999999995e-11,1.3156e6
5.20348e-11,1.29501e6
5.37119e-11,1.27474e6
5.54426e-11,1.25479e6
5.7229499999999995e-11,1.23516e6
5.907359999999999e-11,1.21584e6
6.09775e-11,1.19682e6
6.29424e-11,1.17811e6
6.497099999999999e-11,1.15969e6
6.70645e-11,1.14156e6
6.9226e-11,1.12372e6
7.145659999999999e-11,1.10616e6
7.37596e-11,1.08888e6
7.61364e-11,1.07187e6
7.85902e-11,1.05513e6
8.11227e-11,1.0386599999999999e6
8.37372e-11,1.0224500000000001e6
8.643549999999999e-11,1.0064900000000001e6
8.922119999999998e-11,990790.9999999999
9.209619999999999e-11,975339.0
9.506439999999999e-11,960129.0
9.81277e-11,945163.0
1.01291e-10,930429.0
1.04554e-10,915936.0
1.07924e-10,901666.0
1.11402e-10,887628.0
1.1499200000000001e-10,873808.0
1.1869700000000001e-10,860211.9999999999
1.22523e-10,846827.0
1.26471e-10,833658.9999999999
1.30547e-10,820696.0
1.34754e-10,807943.0
1.3909700000000002e-10,795388.0
1.43579e-10,783037.0
1.48207e-10,770878.0
1.52982e-10,758916.0
1.57913e-10,747140.0
1.6300100000000001e-10,735556.0
1.68254e-10,724151.0
1.73676e-10,712932.0
1.79274e-10,701888.0
1.8505000000000002e-10,691023.0
1.91014e-10,680327.0
1.97169e-10,669805.0
2.03524e-10,659447.0
2.1008200000000003e-10,649257.0
2.16853e-10,639226.0
2.2384e-10,629358.0
2.31055e-10,619644.0
2.385e-10,610088.0
2.46187e-10,600682.0
2.5412e-10,591427.0
2.6231e-10,582318.0
2.70762e-10,573356.0
2.7948900000000003e-10,564535.0
2.88494e-10,555857.0
2.9779300000000004e-10,547314.0
3.07388e-10,538911.0
3.1729500000000004e-10,530639.0
3.27519e-10,522501.0
3.38075e-10,514490.0
3.4896900000000003e-10,506609.99999999994
3.6021600000000004e-10,498853.0
3.7182300000000004e-10,491221.99999999994
3.83807e-10,483711.0
3.96174e-10,476321.0
4.08943e-10,469048.0
4.2212e-10,461892.0
4.3572499999999996e-10,454847.99999999994
4.4976500000000005e-10,447919.0
4.6426100000000007e-10,441099.0
4.79221e-10,434389.0
4.94666e-10,427784.00000000006
5.10605e-10,421286.0
5.270620000000001e-10,414891.0
5.440450000000001e-10,408599.0
5.6158e-10,402406.00000000006
5.796750000000001e-10,396313.0
5.98358e-10,390316.0
6.176389999999999e-10,384415.0
6.37545e-10,378608.0
6.58089e-10,372894.0
6.79298e-10,367271.0
7.01188e-10,361738.0
7.237860000000001e-10,356292.0
7.47109e-10,350934.0
7.71188e-10,345660.0
7.960380000000001e-10,340472.0
8.21693e-10,335365.0
8.48171e-10,330340.0
8.75507e-10,325394.0
9.037190000000002e-10,320528.0
9.32845e-10,315739.0
9.62904e-10,311027.0
9.93937e-10,306389.0
1.0259700000000001e-9,301825.0
1.05903e-9,297333.0
1.09316e-9,292914.0
1.12839e-9,288564.0
1.16475e-9,284284.0
1.2022900000000002e-9,280071.0
1.2410300000000002e-9,275926.0
1.28103e-9,271847.0
1.3223100000000002e-9,267833.0
1.36492e-9,263881.0
1.4089000000000002e-9,259994.0
1.4543100000000001e-9,256167.0
1.5011699999999999e-9,252402.00000000003
1.5495600000000002e-9,248695.99999999997
1.5994900000000002e-9,245050.0
1.6510400000000001e-9,241461.0
1.7042400000000001e-9,237929.0
1.76289e-9,234222.99999999997
1.8235500000000002e-9,230581.0
1.8863000000000004e-9,226999.0
1.9512100000000003e-9,223478.99999999997
2.01835e-9,220018.0
2.0878100000000005e-9,216615.0
2.15965e-9,213269.99999999997
2.23397e-9,209981.99999999997
2.31084e-9,206748.99999999997
2.39036e-9,203571.0
2.4726100000000002e-9,200446.0
2.5577000000000004e-9,197375.0
2.64571e-9,194355.0
2.73675e-9,191387.0
2.8309300000000003e-9,188468.0
2.9283400000000003e-9,185599.0
3.0291100000000005e-9,182778.0
3.13335e-9,180005.0
3.24117e-9,177279.0
3.3527000000000002e-9,174599.0
3.46807e-9,171964.0
3.5874100000000005e-9,169373.0
3.71086e-9,166827.0
3.83856e-9,164323.0
3.97064e-9,161862.0
4.107280000000001e-9,159442.0
4.24862e-9,157063.0
4.39482e-9,154724.0
4.54605e-9,152424.0
4.7024800000000005e-9,150164.0
4.8643e-9,147941.0
5.0316900000000004e-9,145756.0
5.2048300000000005e-9,143608.0
5.38394e-9,141497.0
5.569200000000001e-9,139421.0
5.76085e-9,137379.0
5.9590800000000005e-9,135373.0
6.16414e-9,133400.0
6.3762600000000005e-9,131460.0
6.595670000000001e-9,129553.99999999999
6.82264e-9,127679.00000000001
7.057410000000001e-9,125835.99999999999
7.300270000000001e-9,124024.0
7.55148e-9,122242.0
7.81133e-9,120490.99999999999
8.08013e-9,118768.99999999999
8.35818e-9,117076.0
8.645790000000001e-9,115412.0
8.9433e-9,113775.0
9.25105e-9,112167.0
9.569390000000001e-9,110585.0
9.89869e-9,109030.0
1.02393e-8,107502.00000000001
1.05917e-8,105999.0
1.09561e-8,104521.0
1.13331e-8,103069.00000000001
1.1748e-8,101552.0
1.21779e-8,100062.99999999999
1.26237e-8,98600.20000000001
1.3085700000000001e-8,97163.79999999999
1.3564700000000001e-8,95752.90000000001
1.40611e-8,94367.40000000001
1.4575800000000002e-8,93006.49999999999
1.51092e-8,91670.09999999999
1.56623e-8,90357.40000000001
1.62355e-8,89068.40000000001
1.6829799999999998e-8,87802.29999999999
1.74457e-8,86559.00000000001
1.80843e-8,85337.8
1.87461e-8,84138.59999999999
1.94323e-8,82960.8
2.0143499999999998e-8,81804.2
2.0880800000000003e-8,80668.29999999999
2.1645e-8,79552.8
2.2437299999999997e-8,78457.2
2.32585e-8,77381.4
2.4109799999999998e-8,76324.8
2.4992200000000004e-8,75287.2
2.52522e-8,74991.8
2.5299999999999998e-8,74938.0
2.6226099999999998e-8,73925.09999999999
2.71859e-8,72930.40000000001
2.8181e-8,71953.4
2.9212400000000002e-8,70993.9
3.0281600000000004e-8,70051.5
3.13899e-8,69126.1
3.2538900000000006e-8,68217.2
3.38012e-8,67272.7
3.51125e-8,66346.2
3.6474700000000004e-8,65437.3
3.78897e-8,64545.700000000004
3.93597e-8,63671.0
4.08866e-8,62812.9
4.24728e-8,61971.0
4.4120600000000007e-8,61145.1
4.58322e-8,60334.700000000004
4.76103e-8,59539.600000000006
4.94573e-8,58759.6
5.1376e-8,57994.3
5.3369200000000004e-8,57243.700000000004
5.5439600000000004e-8,56507.2
5.7590399999999997e-8,55784.799999999996
5.98246e-8,55076.1
6.21455e-8,54380.9
6.45565e-8,53698.8
6.72027e-8,52993.0
6.99578e-8,52301.399999999994
7.282549999999999e-8,51623.700000000004
7.5811e-8,50959.700000000004
7.89186e-8,50309.100000000006
8.215400000000001e-8,49671.5
8.552160000000001e-8,49046.700000000004
8.90277e-8,48434.2
9.26771e-8,47834.0
9.647650000000001e-8,47245.799999999996
1.00431e-7,46669.5
1.0454899999999999e-7,46104.700000000004
1.0883400000000001e-7,45551.399999999994
1.13296e-7,45009.2
1.1818999999999999e-7,44450.200000000004
1.23296e-7,43903.100000000006
1.28622e-7,43367.5
1.34178e-7,42843.299999999996
1.3997399999999998e-7,42330.3
1.4601999999999998e-7,41828.1
1.5232799999999999e-7,41336.700000000004
1.58908e-7,40855.8
1.6577299999999998e-7,40385.1
1.72934e-7,39924.7
1.80404e-7,39474.200000000004
1.88595e-7,39011.6
1.97158e-7,38559.2
2.0611e-7,38116.9
2.1546899999999998e-7,37684.6
2.2525199999999998e-7,37262.1
2.3548e-7,36849.3
2.46172e-7,36445.9
2.5735e-7,36051.799999999996
2.69605e-7,35648.7
2.82443e-7,35255.4
2.95893e-7,34871.8
3.09982e-7,34497.6
3.24743e-7,34132.799999999996
3.40207e-7,33777.1
3.5640699999999997e-7,33430.8
3.74168e-7,33078.3
3.92816e-7,32735.2
4.12392e-7,32401.5
4.3294499999999994e-7,32077.300000000003
4.5452e-7,31762.600000000002
4.77173e-7,31457.3
5.00952e-7,31161.500000000004
5.25919e-7,30875.2
5.52127e-7,30598.399999999998
5.79644e-7,30331.399999999998
6.0853e-7,30074.3
6.388579999999999e-7,29827.3
6.70695e-7,29590.9
7.04121e-7,29365.399999999998
7.3921e-7,29151.5
7.76051e-7,28950.0
8.14725e-7,28761.100000000002
8.535209999999999e-7,28593.5
8.941639999999999e-7,28439.800000000003
9.36743e-7,28301.4
9.79278e-7,28184.999999999996
1.0207699999999998e-6,28091.8
1.0721e-6,28003.399999999998
1.13389e-6,27936.0
1.19562e-6,27911.399999999998
1.26958e-6,27941.2
1.3427599999999998e-6,28034.8
1.4201499999999999e-6,28211.7
1.50201e-6,28497.2
1.5775300000000001e-6,28865.1
1.65677e-6,29379.6
1.72789e-6,29976.9
1.8020599999999998e-6,30767.899999999998
1.86634e-6,31620.499999999996
1.93281e-6,32716.8
1.98773e-6,33824.4
2.04422e-6,35201.4
2.0876800000000002e-6,36463.299999999996
2.13196e-6,37971.3
2.17729e-6,39799.0
2.2080099999999997e-6,41235.299999999996
2.23916e-6,42886.49999999999
2.27075e-6,44796.5
2.30279e-6,47019.700000000004
2.3271e-6,48933.4
2.35164e-6,51100.1
2.37652e-6,53580.4
2.40164e-6,56421.700000000004
2.42699e-6,59694.3
2.45258e-6,63489.1
2.4698799999999997e-6,66384.0
2.48718e-6,69587.1
2.5047199999999996e-6,73196.59999999999
2.5222699999999996e-6,77227.3
2.5400599999999998e-6,81816.8
2.55785e-6,86998.09999999999
2.5713899999999998e-6,91398.4
2.5849199999999997e-6,96255.6
2.59852e-6,101661.0
2.6122399999999996e-6,107729.99999999999
2.62596e-6,114510.0
2.63981e-6,122193.0
2.6537299999999997e-6,130904.0
2.6630099999999996e-6,137350.0
2.6723499999999995e-6,144431.0
2.68176e-6,152233.0
2.6911699999999998e-6,160797.0
2.70058e-6,170223.0
2.7100499999999996e-6,180709.0
2.7195999999999998e-6,192421.0
2.72914e-6,205467.00000000003
2.73868e-6,220055.99999999997
2.74587e-6,232221.0
2.75313e-6,245665.99999999997
2.7603799999999997e-6,260434.0
2.76764e-6,276706.0
2.7749e-6,294692.0
2.78216e-6,314641.0
2.7884799999999995e-6,333840.0
2.7948e-6,354978.0
2.80112e-6,378321.0
2.80744e-6,404182.00000000006
2.8122399999999998e-6,425749.0
2.8170399999999997e-6,449167.0
2.82185e-6,474648.0
2.82665e-6,502430.0
2.8314599999999997e-6,532784.0
2.8362599999999996e-6,566017.0
2.8410700000000002e-6,602476.0
2.84587e-6,642551.0
2.85067e-6,686680.0
2.85548e-6,735354.0
2.86028e-6,789111.0
2.8650899999999996e-6,848546.0
2.86941e-6,907419.0
2.87374e-6,971904.0
2.8780599999999998e-6,1.04251e6
2.88238e-6,1.11977e6
2.88719e-6,1.21404e6
2.8919899999999997e-6,1.31783e6
2.8967999999999995e-6,1.43173e6
2.9016e-6,1.5562e6
2.9064e-6,1.69153e6
2.91121e-6,1.83776e6
2.91601e-6,1.99462e6
2.9208199999999998e-6,2.16144e6
2.92802e-6,2.42788e6
2.93763e-6,2.80382e6
2.94964e-6,3.2768e6
2.95685e-6,3.54135e6
2.96238e-6,3.72413e6
2.96706e-6,3.86051e6
2.97174e-6,3.97622e6
2.97655e-6,4.07027e6
2.98135e-6,4.13678e6
2.9852899999999998e-6,4.1694000000000005e6
2.98966e-6,4.1816500000000005e6
2.99418e-6,4.1676200000000005e6
2.99769e-6,4.13825e6
3.0024899999999998e-6,4.07278e6
3.0072999999999996e-6,3.97995e6
3.0121e-6,3.86245e6
3.0169e-6,3.72354e6
3.02171e-6,3.56688e6
3.02891e-6,3.30717e6
3.04333e-6,2.74622e6
3.05294e-6,2.37757e6
3.06014e-6,2.11801e6
3.0649499999999998e-6,1.956e6
3.0697499999999997e-6,1.80393e6
3.07456e-6,1.6623e6
3.07936e-6,1.53129e6
3.08416e-6,1.41079e6
3.08897e-6,1.30046e6
3.09377e-6,1.19985e6
3.09858e-6,1.10835e6
3.10338e-6,1.0253300000000001e6
3.10819e-6,950092.0000000001
3.11299e-6,881964.9999999999
3.1177899999999998e-6,820285.9999999999
3.1225999999999995e-6,764424.0
3.1274e-6,713792.0
3.13221e-6,667848.0
3.13701e-6,626101.0
3.14182e-6,588105.0
3.1466199999999998e-6,553462.0
3.1514199999999997e-6,521814.99999999994
3.15623e-6,492849.99999999994
3.1610299999999994e-6,466286.0
3.16584e-6,441873.99999999994
3.17064e-6,419397.0
3.17689e-6,392753.0
3.1831299999999996e-6,368682.0
3.1893799999999998e-6,346868.0
3.1956199999999997e-6,327040.0
3.20301e-6,305838.0
3.2104e-6,286765.0
3.21778e-6,269546.0
3.2251699999999996e-6,253947.0
3.23256e-6,239773.0
3.24072e-6,225555.0
3.24928e-6,212094.0
3.25784e-6,199917.0
3.2663999999999998e-6,188866.0
3.27496e-6,178803.0
3.2835499999999997e-6,169575.0
3.29223e-6,161053.0
3.3037999999999996e-6,150779.0
3.31537e-6,141589.0
3.3269399999999997e-6,133334.0
3.3386799999999998e-6,125794.0
3.35041e-6,118981.0
3.36215e-6,112805.0
3.37388e-6,107189.0
3.3857799999999997e-6,101997.0
3.3976799999999995e-6,97254.7
3.4155299999999997e-6,90873.7
3.43355e-6,85198.2
3.45165e-6,80152.2
3.4697499999999997e-6,75666.3
3.4881099999999995e-6,71607.1
3.5064700000000002e-6,67972.2
3.52491e-6,64688.5
3.54353e-6,61698.00000000001
3.56835e-6,58145.100000000006
3.5935199999999997e-6,54974.5
3.61869e-6,52173.2
3.6442199999999995e-6,49654.0
3.66974e-6,47410.7
3.69563e-6,45375.6
3.7215199999999996e-6,43548.0
3.7608899999999996e-6,41105.299999999996
3.80064e-6,38983.8
3.8407599999999995e-6,37129.7
3.88126e-6,35499.5
3.92233e-6,34051.7
3.9637799999999995e-6,32765.7
4.0197e-6,31261.399999999998
4.076419999999999e-6,29956.7
4.13393e-6,28817.300000000003
4.1922499999999995e-6,27817.3
4.25139e-6,26932.399999999998
4.34157e-6,25781.6
4.43388e-6,24801.899999999998
4.527929999999999e-6,23963.0
4.6242099999999996e-6,23233.899999999998
4.7556e-6,22401.7
4.89074e-6,21694.6
5.06494e-6,20946.699999999997
5.2823499999999995e-6,20198.9
5.50909e-6,19569.5
5.7861e-6,18945.9
6.1196e-6,18339.3
6.51766e-6,17752.399999999998
7.0398899999999994e-6,17129.1
7.65723e-6,16529.3
8.44621e-6,15898.9
9.38174e-6,15278.6
1.05684e-5,14618.599999999999
1.19886e-5,13953.800000000001
1.35997e-5,13312.900000000001
1.5319100000000004e-5,12727.699999999999
1.6780000000000002e-5,12312.199999999999
1.76229e-5,12135.199999999999
1.81827e-5,12080.4
1.8241700000000002e-5,12079.9
1.8629600000000002e-5,12119.3
1.8892400000000002e-5,12209.9
1.9091900000000003e-5,12338.4
1.92932e-5,12552.300000000001
1.94293e-5,12770.1
1.95313e-5,12989.900000000001
1.9634400000000003e-5,13279.300000000001
1.97379e-5,13663.400000000001
1.9806900000000002e-5,13989.6
1.9869200000000003e-5,14347.9
1.9924900000000003e-5,14732.099999999999
1.99806e-5,15192.000000000002
2.00363e-5,15747.3
2.0079600000000003e-5,16260.5
2.0125700000000003e-5,16907.5
2.01719e-5,17681.7
2.0202700000000002e-5,18284.8
2.0233500000000002e-5,18972.2
2.0264300000000002e-5,19759.7
2.0295e-5,20667.2
2.0320900000000004e-5,21540.6
2.03523e-5,22765.7
2.03732e-5,23702.2
2.03942e-5,24752.3
2.0415100000000004e-5,25935.3
2.0436000000000002e-5,27274.699999999997
2.0457e-5,28799.399999999998
2.0472700000000005e-5,30086.1
2.0490200000000002e-5,31694.8
2.0508700000000002e-5,33617.2
2.05272e-5,35820.7
2.0539500000000002e-5,37475.0
2.0551800000000002e-5,39302.5
2.0564100000000002e-5,41329.799999999996
2.0576400000000002e-5,43588.7
2.0588700000000005e-5,46118.2
2.0601e-5,48965.899999999994
2.06103e-5,51345.4
2.06195e-5,53966.399999999994
2.0628700000000005e-5,56863.9
2.0638e-5,60079.3
2.06472e-5,63661.1
2.0656400000000004e-5,67666.2
2.06657e-5,72161.7
2.06749e-5,77225.7
2.0683500000000003e-5,82545.40000000001
2.069e-5,86963.00000000001
2.0696500000000004e-5,91791.7
2.07029e-5,97076.0
2.07094e-5,102864.0
2.0715900000000003e-5,109209.0
2.07223e-5,116167.0
2.0728800000000004e-5,123800.0
2.07353e-5,132173.0
2.07417e-5,141356.0
2.0749e-5,152834.0
2.07542e-5,161679.0
2.0759400000000003e-5,171185.0
2.07646e-5,181391.0
2.0769700000000002e-5,192340.0
2.0774900000000003e-5,204072.0
2.07801e-5,216627.0
2.0785200000000002e-5,230045.0
2.07921e-5,249342.0
2.0799000000000002e-5,270322.0
2.08059e-5,293058.0
2.0812800000000002e-5,317607.0
2.08202e-5,345972.0
2.08276e-5,376495.0
2.0835e-5,409174.0
2.08424e-5,443968.99999999994
2.0852200000000003e-5,493511.0
2.08621e-5,546363.0
2.0871900000000003e-5,602067.0
2.08867e-5,689592.0
2.09163e-5,868167.0
2.0931000000000003e-5,951955.0000000001
2.09409e-5,1.0030300000000001e6
2.0950700000000003e-5,1.04889e6
2.09606e-5,1.08839e6
2.09704e-5,1.12054e6
2.09793e-5,1.14248e6
2.0987200000000005e-5,1.15604e6
2.09957e-5,1.16411e6
2.10005e-5,1.16558e6
2.10059e-5,1.16458e6
2.10158e-5,1.15556e6
2.10256e-5,1.13748e6
2.10355e-5,1.11087e6
2.1045300000000003e-5,1.07646e6
2.10552e-5,1.0351699999999999e6
2.1065000000000002e-5,988066.0000000001
2.10749e-5,936295.0
2.1089600000000002e-5,852518.0000000001
2.1124100000000003e-5,648545.0
2.1138900000000002e-5,565417.0
2.11487e-5,513255.0
2.11586e-5,464248.0
2.1166000000000004e-5,429756.0
2.1173400000000003e-5,397295.0
2.1180800000000002e-5,366909.0
2.1189100000000004e-5,334987.0
2.1195100000000003e-5,314047.0
2.1201e-5,294398.0
2.12093e-5,268704.0
2.12167e-5,248034.0
2.1224100000000002e-5,229138.99999999997
2.12315e-5,211916.0
2.12389e-5,196253.0
2.12463e-5,182038.0
2.1253700000000003e-5,169157.0
2.1261000000000002e-5,157499.0
2.12684e-5,146957.0
2.12758e-5,137427.0
2.1283200000000003e-5,128812.0
2.1290600000000002e-5,121022.99999999999
2.1298000000000002e-5,113974.0
2.13054e-5,107590.00000000001
2.13128e-5,101800.0
2.13202e-5,96540.59999999999
2.1328200000000004e-5,91375.4
2.13374e-5,86021.90000000001
2.13466e-5,81234.90000000001
2.1355900000000003e-5,76939.4
2.13651e-5,73070.7
2.1374300000000003e-5,69573.40000000001
2.13866e-5,65407.200000000004
2.1399e-5,61724.50000000001
2.1411300000000003e-5,58449.5
2.1423600000000003e-5,55520.50000000001
2.1435900000000003e-5,52887.2
2.1448200000000002e-5,50508.4
2.14605e-5,48350.200000000004
2.1479000000000002e-5,45465.7
2.1497500000000002e-5,42937.8
2.1515900000000002e-5,40706.7
2.15326e-5,38913.2
2.15535e-5,36899.700000000004
2.15744e-5,35117.799999999996
2.15954e-5,33531.9
2.1616300000000002e-5,32112.8
2.1637200000000004e-5,30837.1
2.16686e-5,29150.7
2.1689600000000003e-5,28155.3
2.1720400000000003e-5,26848.6
2.1751100000000003e-5,25700.8
2.17819e-5,24686.2
2.1812700000000002e-5,23784.100000000002
2.1858900000000002e-5,22606.600000000002
2.1905100000000005e-5,21601.499999999996
2.1951200000000004e-5,20735.7
2.19974e-5,19983.6
2.2059000000000003e-5,19124.1
2.2120500000000003e-5,18396.3
2.2182100000000002e-5,17773.5
2.2260300000000004e-5,17102.7
2.23386e-5,16538.4
2.2416800000000002e-5,16057.699999999999
2.2534700000000003e-5,15455.7
2.26537e-5,14962.0
2.2772800000000003e-5,14554.0
2.28929e-5,14208.6
2.3053800000000003e-5,13825.400000000001
2.3215900000000002e-5,13508.7
2.3460700000000004e-5,13125.4
2.3708900000000003e-5,12818.300000000001
2.3959500000000003e-5,12566.800000000001
2.42975e-5,12292.8
2.48129e-5,11970.099999999999
2.5340500000000002e-5,11714.9
2.6060500000000006e-5,11441.1
2.69888e-5,11164.199999999999
2.8345800000000002e-5,10846.199999999999
3.01896e-5,10504.199999999999
3.2608600000000005e-5,10142.199999999999
3.57165e-5,9760.32
3.96745e-5,9356.66
4.4379900000000005e-5,8954.08
5.0343700000000004e-5,8520.22
6.0691300000000006e-5,7855.7
6.08116e-5,7852.83
6.0987500000000005e-5,7874.46
6.11393e-5,7956.05
6.12689e-5,8028.2300000000005
6.130130000000001e-5,8032.56
6.139100000000001e-5,8004.35
6.15937e-5,7855.32
6.173720000000001e-5,7803.26
6.23295e-5,7753.93
6.34402e-5,7710.320000000001
6.36253e-5,7708.83
6.42507e-5,7731.68
6.45532e-5,7769.99
6.485570000000001e-5,7842.86
6.506200000000001e-5,7924.959999999999
6.52683e-5,8049.400000000001
6.54058e-5,8167.48
6.55708e-5,8364.73
6.568080000000001e-5,8544.31
6.579080000000001e-5,8779.0
6.588020000000001e-5,9025.31
6.5949e-5,9260.15
6.60178e-5,9546.34
6.60865e-5,9898.970000000001
6.61381e-5,10219.400000000001
6.618960000000001e-5,10600.9
6.62412e-5,11059.699999999999
6.62756e-5,11418.900000000001
6.631000000000001e-5,11830.7
6.634430000000001e-5,12305.699999999999
6.637870000000002e-5,12858.099999999999
6.640900000000001e-5,13422.7
6.64351e-5,13982.9
6.64612e-5,14624.8
6.64874e-5,15366.9
6.6507e-5,16003.5
6.652660000000001e-5,16723.1
