E(MeV),xs(mb)
1.0e-11,7.14802e7
1.03223e-11,7.03556e7
1.06549e-11,6.92492e7
1.0998399999999998e-11,6.81597e7
1.13527e-11,6.708789999999999e7
1.1718599999999999e-11,6.603240000000001e7
1.2096199999999998e-11,6.49941e7
1.24861e-11,6.397160000000001e7
1.2888399999999999e-11,6.296560000000001e7
1.3303799999999998e-11,6.19751e7
1.37325e-11,6.100050000000001e7
1.41751e-11,6.0041e7
1.4631799999999997e-11,5.90968e7
1.51034e-11,5.81672e7
1.5590099999999998e-11,5.725259999999999e7
1.6092599999999998e-11,5.6352e7
1.66111e-11,5.54659e7
1.71465e-11,5.45935e7
1.7699e-11,5.373509999999999e7
1.8269399999999998e-11,5.28899e7
1.88581e-11,5.20583e7
1.94659e-11,5.12395e7
2.00931e-11,5.043389999999999e7
2.0740699999999998e-11,4.964070000000001e7
2.1408999999999998e-11,4.88602e7
2.2099099999999997e-11,4.809179999999999e7
2.28111e-11,4.73357e7
2.3546399999999998e-11,4.65913e7
2.4305099999999997e-11,4.58589e7
2.50884e-11,4.51377e7
2.5896799999999997e-11,4.44281e7
2.67315e-11,4.37295e7
2.75928e-11,4.30421e7
2.8482199999999998e-11,4.23653e7
2.93999e-11,4.16993e7
3.0347499999999995e-11,4.10437e7
3.13253e-11,4.03986e7
3.2335e-11,3.97634e7
3.33769e-11,3.91384e7
3.44526e-11,3.85231e7
3.55627e-11,3.79177e7
3.67089e-11,3.73216e7
3.7891799999999997e-11,3.67351e7
3.9113e-11,3.61576e7
4.0373400000000003e-11,3.55894e7
4.1674599999999996e-11,3.503e7
4.3017399999999996e-11,3.44796e7
4.440389999999999e-11,3.39377e7
4.58347e-11,3.34044e7
4.7311899999999994e-11,3.28794e7
4.883639999999999e-11,3.23629e7
5.0410399999999995e-11,3.1854300000000004e7
5.20348e-11,3.13539e7
5.37119e-11,3.0861200000000004e7
5.54426e-11,3.03764e7
5.7229499999999995e-11,2.98992e7
5.907359999999999e-11,2.9429599999999996e7
6.09775e-11,2.89672e7
6.29424e-11,2.85123e7
6.497099999999999e-11,2.80644e7
6.70645e-11,2.7623700000000004e7
6.9226e-11,2.71898e7
7.145659999999999e-11,2.67629e7
7.37596e-11,2.63426e7
7.61364e-11,2.5929000000000004e7
7.85902e-11,2.55219e7
8.11227e-11,2.51213e7
8.37372e-11,2.47269e7
8.643549999999999e-11,2.43388e7
8.922119999999998e-11,2.39567e7
9.209619999999999e-11,2.35808e7
9.506439999999999e-11,2.3210700000000004e7
9.81277e-11,2.28465e7
1.01291e-10,2.24879e7
1.04554e-10,2.21352e7
1.07924e-10,2.17878e7
1.11402e-10,2.14461e7
1.1499200000000001e-10,2.11097e7
1.1869700000000001e-10,2.07787e7
1.22523e-10,2.04528e7
1.26471e-10,2.01321e7
1.30547e-10,1.98164e7
1.34754e-10,1.95058e7
1.3909700000000002e-10,1.92e7
1.43579e-10,1.88991e7
1.48207e-10,1.86029e7
1.52982e-10,1.83115e7
1.57913e-10,1.80246e7
1.6300100000000001e-10,1.77423e7
1.68254e-10,1.74643e7
1.73676e-10,1.71909e7
1.79274e-10,1.69217e7
1.8505000000000002e-10,1.66568e7
1.91014e-10,1.6396e7
1.97169e-10,1.61395e7
2.03524e-10,1.58869e7
2.1008200000000003e-10,1.5638399999999998e7
2.16853e-10,1.5393699999999998e7
2.2384e-10,1.5153e7
2.31055e-10,1.4916e7
2.385e-10,1.4682900000000002e7
2.46187e-10,1.44534e7
2.5412e-10,1.42276e7
2.6231e-10,1.40053e7
2.70762e-10,1.37865e7
2.7948900000000003e-10,1.3571200000000002e7
2.88494e-10,1.3359399999999998e7
2.9779300000000004e-10,1.31508e7
3.07388e-10,1.29457e7
3.1729500000000004e-10,1.27437e7
3.27519e-10,1.2545e7
3.38075e-10,1.23494e7
3.4896900000000003e-10,1.21569e7
3.6021600000000004e-10,1.19675e7
3.7182300000000004e-10,1.17811e7
3.83807e-10,1.1597599999999998e7
3.96174e-10,1.14171e7
4.08943e-10,1.12394e7
4.2212e-10,1.10646e7
4.3572499999999996e-10,1.0892599999999998e7
4.4976500000000005e-10,1.07233e7
4.6426100000000007e-10,1.05566e7
4.79221e-10,1.03927e7
4.94666e-10,1.0231300000000002e7
5.10605e-10,1.00726e7
5.270620000000001e-10,9.91634e6
5.440450000000001e-10,9.76261e6
5.6158e-10,9.61131e6
5.796750000000001e-10,9.46246e6
5.98358e-10,9.31596e6
6.176389999999999e-10,9.17183e6
6.37545e-10,9.02999e6
6.58089e-10,8.89044e6
6.79298e-10,8.7531e6
7.01188e-10,8.61799e6
7.237860000000001e-10,8.48502e6
7.47109e-10,8.35421e6
7.71188e-10,8.225479999999999e6
7.960380000000001e-10,8.098839999999999e6
8.21693e-10,7.97422e6
8.48171e-10,7.85163e6
8.75507e-10,7.73099e6
9.037190000000002e-10,7.61232e6
9.32845e-10,7.49554e6
9.62904e-10,7.38067e6
9.93937e-10,7.26764e6
1.0259700000000001e-9,7.15646e6
1.05903e-9,7.04706e6
1.09316e-9,6.93945e6
1.12839e-9,6.83357e6
1.16475e-9,6.72943e6
1.2022900000000002e-9,6.62697e6
1.2410300000000002e-9,6.52619e6
1.28103e-9,6.42704e6
1.3223100000000002e-9,6.32953e6
1.36492e-9,6.23359e6
1.4089000000000002e-9,6.13924e6
1.4543100000000001e-9,6.04642e6
1.5011699999999999e-9,5.95514e6
1.5495600000000002e-9,5.86535e6
1.5994900000000002e-9,5.77705e6
1.6510400000000001e-9,5.69019e6
1.7042400000000001e-9,5.60479e6
1.75917e-9,5.52078e6
1.81585e-9,5.43818e6
1.87438e-9,5.35693e6
1.9347700000000003e-9,5.27706e6
1.99713e-9,5.1985e6
2.06148e-9,5.12127e6
2.1279200000000002e-9,5.04532e6
2.19649e-9,4.97065e6
2.26728e-9,4.89723e6
2.3403400000000002e-9,4.82506e6
2.4157700000000002e-9,4.7541e6
2.49362e-9,4.68436e6
2.5739800000000002e-9,4.61579e6
2.65692e-9,4.5484e6
2.7425500000000002e-9,4.48215e6
2.8309300000000003e-9,4.41705e6
2.92217e-9,4.35306e6
3.01633e-9,4.29018e6
3.11354e-9,4.22838e6
3.21387e-9,4.16767e6
3.3174500000000004e-9,4.10801e6
3.42435e-9,4.0494000000000005e6
3.53471e-9,3.99182e6
3.6486100000000003e-9,3.93526e6
3.7662000000000005e-9,3.8797e6
3.88757e-9,3.82514e6
4.01286e-9,3.77154e6
4.15094e-9,3.71545e6
4.2937800000000004e-9,3.66044e6
4.44154e-9,3.60649e6
4.59438e-9,3.55361e6
4.75247e-9,3.50176e6
4.916010000000001e-9,3.45095e6
5.085180000000001e-9,3.40114e6
5.26016e-9,3.35234e6
5.44117e-9,3.30454e6
5.62841e-9,3.25771e6
5.8220900000000005e-9,3.21184e6
6.022430000000001e-9,3.16693e6
6.22967e-9,3.12297e6
6.444040000000001e-9,3.07994e6
6.665790000000001e-9,3.03783e6
6.89517e-9,2.99664e6
7.13244e-9,2.95635e6
7.3778800000000006e-9,2.91696e6
7.63176e-9,2.87846e6
7.894370000000002e-9,2.84084e6
8.16603e-9,2.80409e6
8.44703e-9,2.76821e6
8.73771e-9,2.7332e6
9.03838e-9,2.69904e6
9.3494e-9,2.66573e6
9.671130000000001e-9,2.63327e6
1.00039e-8,2.60165e6
1.03482e-8,2.57087e6
1.07043e-8,2.54092e6
1.10726e-8,2.51181e6
1.14536e-8,2.48352e6
1.18478e-8,2.45607e6
1.2281400000000001e-8,2.4278e6
1.2730900000000001e-8,2.40047e6
1.31968e-8,2.37409e6
1.36799e-8,2.34863e6
1.41805e-8,2.32413e6
1.4699599999999999e-8,2.30058e6
1.52376e-8,2.27798e6
1.57953e-8,2.25635e6
1.63734e-8,2.2357e6
1.69727e-8,2.21604e6
1.75939e-8,2.19738e6
1.8237900000000002e-8,2.17973e6
1.89054e-8,2.16313e6
1.9597400000000002e-8,2.14758e6
2.0314600000000002e-8,2.13311e6
2.10582e-8,2.11974e6
2.18289e-8,2.10751e6
2.26279e-8,2.0964299999999998e6
2.3456000000000002e-8,2.08655e6
2.43146e-8,2.0779100000000002e6
2.52045e-8,2.07055e6
2.52522e-8,2.0701999999999998e6
2.5299999999999998e-8,2.0698500000000002e6
2.6226099999999998e-8,2.0639599999999998e6
2.71859e-8,2.0594700000000002e6
2.8181e-8,2.0564399999999998e6
2.9212400000000002e-8,2.0549300000000002e6
2.9648e-8,2.05478e6
3.0695600000000004e-8,2.05551e6
3.17518e-8,2.0577800000000002e6
3.28444e-8,2.0616599999999998e6
3.39747e-8,2.06725e6
3.51438e-8,2.0746600000000002e6
3.62762e-8,2.0833499999999998e6
3.7445400000000004e-8,2.0938500000000002e6
3.8652e-8,2.10627e6
3.98977e-8,2.12076e6
4.10965e-8,2.13626e6
4.233120000000001e-8,2.15382e6
4.36031e-8,2.17358e6
4.48182e-8,2.19404e6
4.6067400000000007e-8,2.2167e6
4.73512e-8,2.24169e6
4.85681e-8,2.26701e6
4.9816300000000004e-8,2.29463e6
5.1096500000000004e-8,2.32474e6
5.2299e-8,2.3547e6
5.35296e-8,2.38707e6
5.47894e-8,2.42205e6
5.59603e-8,2.45627e6
5.71562e-8,2.49297e6
5.8377600000000007e-8,2.53233e6
5.94991e-8,2.57019e6
6.06424e-8,2.61054e6
6.18074e-8,2.65352e6
6.2995e-8,2.69936e6
6.40697e-8,2.74264e6
6.51627e-8,2.78849e6
6.62744e-8,2.83707e6
6.740509999999999e-8,2.88857e6
6.855500000000001e-8,2.94319e6
6.95771e-8,2.99371e6
7.06148e-8,3.04696e6
7.16676e-8,3.10309e6
7.27365e-8,3.16231e6
7.38209e-8,3.22478e6
7.49219e-8,3.29076e6
7.58785e-8,3.35026e6
7.68473e-8,3.41265e6
7.78285e-8,3.47809e6
7.88222e-8,3.54676e6
7.98286e-8,3.61886e6
8.08479e-8,3.69459e6
8.188010000000001e-8,3.77415e6
8.27502e-8,3.84354e6
8.36299e-8,3.91593e6
8.45186e-8,3.9914e6
8.541710000000001e-8,4.0701799999999995e6
8.632479999999999e-8,4.15235e6
8.72425e-8,4.23817e6
8.81696e-8,4.32773e6
8.910690000000001e-8,4.4213e6
9.005380000000001e-8,4.519e6
9.10112e-8,4.62111e6
9.19783e-8,4.72775e6
9.295610000000001e-8,4.83923e6
9.394389999999999e-8,4.95567e6
9.494260000000001e-8,5.0774e6
9.595150000000001e-8,5.20454e6
9.67666e-8,5.31035e6
9.758850000000001e-8,5.41992e6
9.84174e-8,5.53335e6
9.92534e-8,5.65076e6
1.00096e-7,5.77224e6
1.0094700000000001e-7,5.89789e6
1.01804e-7,6.02781e6
1.0288600000000001e-7,6.19634e6
1.0398e-7,6.37169e6
1.05085e-7,6.55407e6
1.0620199999999999e-7,6.74334e6
1.07331e-7,6.93961e6
1.08471e-7,7.14257e6
1.09624e-7,7.35216e6
1.1102399999999999e-7,7.61173e6
1.1267899999999999e-7,7.92455e6
1.17547e-7,8.85755e6
1.19048e-7,9.13998e6
1.20313e-7,9.37234e6
1.21335e-7,9.55462e6
1.22366e-7,9.7324e6
1.23144e-7,9.86193e6
1.23928e-7,9.98766e6
1.24717e-7,1.01088e7
1.25511e-7,1.0224899999999998e7
1.26309e-7,1.03351e7
1.27113e-7,1.04388e7
1.27922e-7,1.05354e7
1.28736e-7,1.06241e7
1.29555e-7,1.07043e7
1.3010399999999998e-7,1.07527e7
1.30655e-7,1.07969e7
1.31209e-7,1.08366e7
1.31765e-7,1.0871599999999998e7
1.32324e-7,1.09019e7
1.32884e-7,1.09272e7
1.3344800000000002e-7,1.09473e7
1.34013e-7,1.09623e7
1.3458099999999998e-7,1.09718e7
1.35151e-7,1.09758e7
1.35836e-7,1.09732e7
1.3652399999999999e-7,1.09625e7
1.3710199999999998e-7,1.09472e7
1.37683e-7,1.0926e7
1.3838799999999998e-7,1.0892599999999998e7
1.3897399999999998e-7,1.08584e7
1.39563e-7,1.08183e7
1.40155e-7,1.07723e7
1.4074899999999999e-7,1.07205e7
1.41345e-7,1.06629e7
1.41944e-7,1.05995e7
1.4254599999999998e-7,1.0530600000000002e7
1.4314999999999998e-7,1.04561e7
1.43757e-7,1.03763e7
1.4436599999999998e-7,1.02912e7
1.44978e-7,1.02011e7
1.45592e-7,1.0106e7
1.4620899999999998e-7,1.00063e7
1.4713899999999998e-7,9.84826e6
1.48076e-7,9.68069e6
1.49018e-7,9.50456e6
1.49967e-7,9.32043e6
1.5092099999999998e-7,9.1294e6
1.5188099999999998e-7,8.93206e6
1.53171e-7,8.66093e6
1.5479899999999998e-7,8.31194e6
1.58777e-7,7.45019e6
1.60126e-7,7.16177e6
1.61486e-7,6.87546e6
1.62514e-7,6.66289e6
1.63548e-7,6.45295e6
1.64589e-7,6.24583e6
1.65636e-7,6.04225e6
1.6669e-7,5.84228e6
1.67397e-7,5.71125e6
1.6810599999999998e-7,5.58212e6
1.68819e-7,5.45496e6
1.69534e-7,5.32982e6
1.70253e-7,5.20677e6
1.70974e-7,5.08585e6
1.7169899999999998e-7,4.96711e6
1.7242599999999999e-7,4.85057e6
1.73157e-7,4.73625e6
1.7389099999999998e-7,4.62419e6
1.74628e-7,4.51439e6
1.7536799999999999e-7,4.40686e6
1.7611099999999998e-7,4.3016e6
1.76858e-7,4.1986e6
1.7760699999999998e-7,4.0978700000000005e6
1.7836e-7,3.99939e6
1.79116e-7,3.90314e6
1.79875e-7,3.8091e6
1.80637e-7,3.71726e6
1.81403e-7,3.62758e6
1.82171e-7,3.54005e6
1.82944e-7,3.45463e6
1.83719e-7,3.37129e6
1.84497e-7,3.29e6
1.8527899999999997e-7,3.21072e6
1.86065e-7,3.13342e6
1.8685299999999999e-7,3.05806e6
1.8764499999999998e-7,2.98461e6
1.8844e-7,2.91303e6
1.89239e-7,2.84327e6
1.9004099999999997e-7,2.7753e6
1.90846e-7,2.70909e6
1.9165499999999998e-7,2.64458e6
1.92467e-7,2.58175e6
1.93283e-7,2.52055e6
1.94102e-7,2.46095e6
1.9492499999999998e-7,2.4029e6
1.95751e-7,2.34637e6
1.9657999999999998e-7,2.29132e6
1.97413e-7,2.23772e6
1.9825e-7,2.18552e6
1.9909e-7,2.13469e6
1.9993399999999997e-7,2.0851899999999998e6
2.00781e-7,2.037e6
2.01632e-7,1.99006e6
2.0248699999999998e-7,1.94436e6
2.03345e-7,1.89986e6
2.0420699999999997e-7,1.85652e6
2.05072e-7,1.81432e6
2.05941e-7,1.77322e6
2.06814e-7,1.73319e6
2.0769e-7,1.69421e6
2.08571e-7,1.65624e6
2.09455e-7,1.61925e6
2.1034199999999997e-7,1.58322e6
2.11234e-7,1.54813e6
2.12129e-7,1.51394e6
2.13028e-7,1.48063e6
2.1393099999999999e-7,1.44818e6
2.1483699999999998e-7,1.41656e6
2.15748e-7,1.38575e6
2.1666199999999998e-7,1.35573e6
2.1758000000000002e-7,1.32646e6
2.18502e-7,1.29794e6
2.19428e-7,1.27015e6
2.20358e-7,1.24305e6
2.21292e-7,1.21663e6
2.2223e-7,1.19088e6
2.23172e-7,1.16577e6
2.24118e-7,1.14129e6
2.25068e-7,1.11742e6
2.2602099999999998e-7,1.09413e6
2.2697899999999998e-7,1.07142e6
2.27941e-7,1.04927e6
2.28907e-7,1.0276700000000001e6
2.2987700000000001e-7,1.0065900000000001e6
2.30852e-7,986026.0
2.3182999999999998e-7,965961.0000000001
2.32812e-7,946382.0
2.33799e-7,927275.0
2.3479e-7,908628.0
2.35785e-7,890428.0
2.36784e-7,872662.0
2.37788e-7,855319.0000000001
2.38795e-7,838387.0
2.39807e-7,821856.0
2.40824e-7,805714.0
2.41844e-7,789950.0
2.42869e-7,774556.0
2.43899e-7,759520.0
2.44932e-7,744833.0
2.4597e-7,730486.0
2.47013e-7,716470.0
2.4805999999999996e-7,702775.0
2.4911099999999996e-7,689395.0
2.50166e-7,676319.0
2.51227e-7,663540.0
2.5229099999999997e-7,651051.0
2.5336099999999996e-7,638844.0
2.54434e-7,626910.0
2.55513e-7,615245.0
2.56596e-7,603839.0
2.57683e-7,592687.0
2.58775e-7,581782.0
2.59872e-7,571118.0
2.6097299999999996e-7,560689.0
2.62079e-7,550488.0
2.6318999999999996e-7,540511.0
2.64305e-7,530750.0
2.6542500000000004e-7,521201.0
2.6655e-7,511859.0
2.6767999999999997e-7,502719.0
2.68814e-7,493774.0
2.69953e-7,485022.0
2.71098e-7,476455.0
2.7224599999999996e-7,468072.0
2.734e-7,459865.0
2.7455899999999996e-7,451832.0
2.75722e-7,443968.99999999994
2.7689099999999996e-7,436270.0
2.78064e-7,428732.0
2.79243e-7,421351.00000000006
2.80426e-7,414124.0
2.8161499999999997e-7,407046.0
2.82808e-7,400115.0
2.84007e-7,393326.0
2.8521e-7,386676.0
2.8641899999999997e-7,380162.0
2.8763299999999997e-7,373780.0
2.88852e-7,367528.0
2.90076e-7,361403.0
2.91305e-7,355401.0
2.9253999999999994e-7,349520.0
2.9378000000000003e-7,343756.0
2.95025e-7,338108.0
2.96275e-7,332572.0
2.9815999999999996e-7,324476.0
3.0005799999999995e-7,316613.0
3.01967e-7,308986.0
3.03889e-7,301577.0
3.0582199999999997e-7,294389.0
3.07769e-7,287403.0
3.09727e-7,280624.0
3.11699e-7,274034.0
3.13682e-7,267637.0
3.15678e-7,261418.00000000003
3.17687e-7,255378.99999999997
3.19709e-7,249506.0
3.2174299999999994e-7,243801.99999999997
3.23791e-7,238254.0
3.2585099999999994e-7,232864.0
3.27925e-7,227619.99999999997
3.30011e-7,222524.0
3.32112e-7,217565.0
3.3422499999999996e-7,212745.0
3.36353e-7,208053.0
3.38492e-7,203491.0
3.40647e-7,199050.0
3.42814e-7,194732.0
3.44996e-7,190527.0
3.4719099999999995e-7,186437.0
3.4940099999999997e-7,182453.0
3.5162399999999997e-7,178578.0
3.53863e-7,174803.0
3.56114e-7,171129.0
3.58381e-7,167550.0
3.6065999999999995e-7,164067.0
3.62956e-7,160672.0
3.6526499999999996e-7,157367.0
3.67591e-7,154146.0
3.69929e-7,151010.0
3.72284e-7,147953.0
3.74652e-7,144976.0
3.77037e-7,142073.0
3.79436e-7,139245.0
3.8185099999999997e-7,136488.0
3.8428e-7,133802.0
3.86727e-7,131182.0
3.89187e-7,128630.0
3.91664e-7,126140.00000000001
3.9415599999999997e-7,123713.99999999999
3.96665e-7,121346.0
3.99189e-7,119039.0
4.0172999999999993e-7,116788.0
4.0428499999999994e-7,114592.99999999999
4.06859e-7,112450.99999999999
4.0944700000000003e-7,110364.0
4.12054e-7,108325.0
4.1467499999999997e-7,106338.0
4.1731499999999995e-7,104399.0
4.1996999999999997e-7,102506.99999999999
4.2264299999999996e-7,100661.0
4.25332e-7,98859.8
4.2803899999999993e-7,97101.29999999999
4.30762e-7,95386.29999999999
4.33505e-7,93711.40000000001
4.3626199999999997e-7,92077.7
4.3903999999999994e-7,90481.9
4.41833e-7,88925.3
4.446449999999999e-7,87404.6
4.47474e-7,85920.90000000001
4.50322e-7,84471.4
4.5318699999999997e-7,83057.20000000001
4.56072e-7,81675.29999999999
4.58973e-7,80327.0
4.6189499999999994e-7,79009.40000000001
4.64834e-7,77723.8
4.6779299999999996e-7,76467.40000000001
4.70769e-7,75241.4
4.73766e-7,74043.3
4.7677899999999993e-7,72874.0
4.798149999999999e-7,71731.2
4.82867e-7,70615.9
4.859409999999999e-7,69525.9
4.890319999999999e-7,68462.0
4.92145e-7,67422.1
4.952759999999999e-7,66407.2
4.99483e-7,65090.1
5.03725e-7,63813.700000000004
5.080040000000001e-7,62576.7
5.123189999999999e-7,61377.9
5.16671e-7,60216.1
5.21059e-7,59090.2
5.25485e-7,57999.200000000004
5.29949e-7,56941.9
5.3445e-7,55917.3
5.3899e-7,54924.600000000006
5.435679999999999e-7,53962.8
5.481849999999999e-7,53031.0
5.52841e-7,52128.4
5.57537e-7,51254.1
5.62272e-7,50407.3
5.67048e-7,49587.1
5.71865e-7,48792.9
5.76722e-7,48023.9
5.816209999999999e-7,47279.4
5.86561e-7,46558.9
5.91543e-7,45861.799999999996
5.96568e-7,45187.4
6.01635e-7,44535.299999999996
6.06745e-7,43904.8
6.11899e-7,43295.399999999994
6.170969999999999e-7,42706.5
6.223379999999999e-7,42137.799999999996
6.27624e-7,41588.700000000004
6.32955e-7,41058.8
6.38332e-7,40547.6
6.43754e-7,40054.9
6.492219999999999e-7,39580.1
6.54736e-7,39123.0
6.60297e-7,38683.1
6.67317e-7,38157.0
6.74408e-7,37657.0
6.81578e-7,37182.200000000004
6.888209999999999e-7,36732.4
6.96143e-7,36306.9
7.03541e-7,35905.5
7.1102e-7,35527.5
7.18576e-7,35173.0
7.26215e-7,34841.3
7.339319999999999e-7,34532.4
7.41734e-7,34246.0
7.496159999999999e-7,33982.1
7.575859999999999e-7,33740.299999999996
7.65636e-7,33520.9
7.73775e-7,33323.7
7.819979999999999e-7,33149.0
7.90311e-7,32996.6
7.98709e-7,32866.7
8.07201e-7,32759.5
8.15778e-7,32675.100000000002
8.244509999999999e-7,32614.100000000002
8.332119999999999e-7,32576.800000000003
8.414549999999999e-7,32563.9
8.426199999999999e-7,32563.8
8.51578e-7,32577.4
8.60628e-7,32616.7
8.69777e-7,32682.3
8.7902e-7,32775.2
8.864859999999999e-7,32869.9
8.940160000000001e-7,32983.2
9.01609e-7,33116.0
9.092679999999999e-7,33268.8
9.169909999999999e-7,33442.4
9.247799999999999e-7,33637.700000000004
9.326349999999999e-7,33855.6
9.40557e-7,34097.1
9.485459999999999e-7,34363.299999999996
9.56603e-7,34655.5
9.64728e-7,34974.9
9.72922e-7,35323.1
9.811859999999998e-7,35701.6
9.87432e-7,36006.5
9.937139999999999e-7,36330.1
1.00004e-6,36673.7
1.0064e-6,37037.6
1.0135000000000001e-6,37466.4
1.0205999999999998e-6,37920.0
1.0278e-6,38406.3
1.0349999999999998e-6,38920.3
1.0423e-6,39471.0
1.0496e-6,40052.8
1.0569999999999998e-6,40676.1
1.06441e-6,41334.600000000006
1.07192e-6,42040.2
1.0794299999999998e-6,42786.0
1.08704e-6,43585.5
1.0946499999999998e-6,44431.1
1.10238e-6,45338.6
1.1101e-6,46299.4
1.1179300000000001e-6,47331.700000000004
1.12576e-6,48426.200000000004
1.1336999999999998e-6,49603.9
1.1416399999999998e-6,50854.600000000006
1.1497e-6,52203.0
1.15775e-6,53638.1
1.16592e-6,55189.1
1.17408e-6,56844.200000000004
1.18029e-6,58178.1
1.1865099999999998e-6,59581.200000000004
1.19275e-6,61065.3
1.19905e-6,62643.700000000004
1.20534e-6,64308.50000000001
1.2117e-6,66082.59999999999
1.2180899999999998e-6,67966.6
1.22448e-6,69959.9
1.23096e-6,72101.4
1.23744e-6,74373.2
1.24394e-6,76797.5
1.25051e-6,79400.3
1.2570799999999999e-6,82173.0
1.26372e-6,85158.79999999999
1.27038e-6,88364.8
1.2770399999999998e-6,91796.5
1.2837999999999999e-6,95528.7
1.29055e-6,99539.6
1.2973399999999999e-6,103878.0
1.3019099999999998e-6,106988.0
1.30648e-6,110262.0
1.3110399999999999e-6,113714.0
1.3156399999999998e-6,117383.0
1.3202799999999997e-6,121286.0
1.32491e-6,125417.0
1.32954e-6,129792.0
1.3342e-6,134464.0
1.3389e-6,139463.0
1.3436e-6,144781.0
1.3483e-6,150446.0
1.35303e-6,156533.0
1.35779e-6,163085.0
1.3625599999999998e-6,170102.0
1.36732e-6,177627.0
1.3721199999999999e-6,185770.0
1.3757399999999999e-6,192332.0
1.3793599999999998e-6,199278.0
1.3829899999999999e-6,206639.00000000003
1.3866099999999998e-6,214448.00000000003
1.39025e-6,222784.0
1.39392e-6,231738.0
1.3976e-6,241282.0
1.40127e-6,251470.0
1.4049499999999998e-6,262361.0
1.4086199999999999e-6,274021.0
1.41235e-6,286708.0
1.41607e-6,300351.0
1.4198e-6,315047.0
1.42353e-6,330909.0
1.4272499999999998e-6,348065.0
1.4310099999999998e-6,366840.0
1.4335299999999999e-6,380318.0
1.43605e-6,394587.0
1.4385699999999999e-6,409708.99999999994
1.44109e-6,425753.99999999994
1.44361e-6,442799.00000000006
1.4461299999999998e-6,460927.00000000006
1.4486499999999999e-6,480232.0
1.45167e-6,505091.99999999994
1.45394e-6,525065.0
1.4562e-6,546280.0
1.45847e-6,568841.0
1.4607399999999999e-6,592859.0
1.46297e-6,618039.0
1.4652e-6,644881.0
1.46743e-6,673529.0
1.4696599999999998e-6,704139.0
1.4718899999999998e-6,736882.0
1.4741200000000001e-6,771948.0
1.47635e-6,809540.9999999999
1.47858e-6,849884.0
1.48081e-6,893223.0
1.4830399999999999e-6,939819.0
1.4852799999999999e-6,989957.0000000001
