E(MeV),xs(mb)
1.0e-11,41059.0
1.03223e-11,40417.1
1.06549e-11,39785.6
1.0998399999999998e-11,39163.8
1.13527e-11,38552.1
1.1718599999999999e-11,37949.9
1.2096199999999998e-11,37357.5
1.24861e-11,36774.200000000004
1.2888399999999999e-11,36200.4
1.3303799999999998e-11,35635.5
1.37325e-11,35079.799999999996
1.41751e-11,34532.7
1.4631799999999997e-11,33994.4
1.51034e-11,33464.5
1.5590099999999998e-11,32943.3
1.6092599999999998e-11,32430.1
1.66111e-11,31925.2
1.71465e-11,31428.3
1.7699e-11,30939.3
1.8269399999999998e-11,30458.1
1.88581e-11,29984.600000000002
1.94659e-11,29518.5
2.00931e-11,29060.0
2.0740699999999998e-11,28608.600000000002
2.1408999999999998e-11,28164.600000000002
2.2099099999999997e-11,27727.5
2.28111e-11,27297.600000000002
2.3546399999999998e-11,26874.3
2.4305099999999997e-11,26458.0
2.50884e-11,26048.2
2.5896799999999997e-11,25644.999999999996
2.67315e-11,25248.2
2.75928e-11,24857.9
2.8482199999999998e-11,24473.699999999997
2.93999e-11,24095.7
3.0347499999999995e-11,23723.7
3.13253e-11,23357.800000000003
3.2335e-11,22997.6
3.33769e-11,22643.399999999998
3.44526e-11,22294.7
3.55627e-11,21951.7
3.67089e-11,21614.2
3.7891799999999997e-11,21282.100000000002
3.9113e-11,20955.4
4.0373400000000003e-11,20634.0
4.1674599999999996e-11,20317.699999999997
4.3017399999999996e-11,20006.499999999996
4.440389999999999e-11,19700.4
4.58347e-11,19399.2
4.7311899999999994e-11,19102.9
4.883639999999999e-11,18811.4
5.0410399999999995e-11,18524.6
5.20348e-11,18242.6
5.37119e-11,17965.0
5.54426e-11,17692.0
5.7229499999999995e-11,17423.4
5.907359999999999e-11,17159.3
6.09775e-11,16899.4
6.29424e-11,16643.8
6.497099999999999e-11,16392.3
6.70645e-11,16145.0
6.9226e-11,15901.7
7.145659999999999e-11,15662.5
7.37596e-11,15427.1
7.61364e-11,15195.6
7.85902e-11,14967.999999999998
8.11227e-11,14744.1
8.37372e-11,14523.900000000001
8.643549999999999e-11,14307.4
8.922119999999998e-11,14094.4
9.209619999999999e-11,13885.0
9.506439999999999e-11,13678.999999999998
9.81277e-11,13476.6
1.01291e-10,13277.4
1.04554e-10,13081.7
1.07924e-10,12889.1
1.11402e-10,12699.9
1.1499200000000001e-10,12513.8
1.1869700000000001e-10,12330.9
1.22523e-10,12151.0
1.26471e-10,11974.199999999999
1.30547e-10,11800.4
1.34754e-10,11629.5
1.3909700000000002e-10,11461.6
1.43579e-10,11296.5
1.48207e-10,11134.2
1.52982e-10,10974.8
1.57913e-10,10818.099999999999
1.6300100000000001e-10,10664.1
1.68254e-10,10512.699999999999
1.74044e-10,10354.2
1.80033e-10,10198.6
1.86229e-10,10045.900000000001
1.92637e-10,9896.01
1.9926600000000002e-10,9748.960000000001
2.06123e-10,9604.68
2.1321599999999998e-10,9463.13
2.20553e-10,9324.25
2.28142e-10,9188.01
2.35993e-10,9054.38
2.4411299999999997e-10,8923.289999999999
2.52514e-10,8794.74
2.61203e-10,8668.66
2.70191e-10,8545.019999999999
2.7948900000000003e-10,8423.79
2.89106e-10,8304.94
2.99055e-10,8188.409999999999
3.09346e-10,8074.19
3.19991e-10,7962.22
3.31002e-10,7852.490000000001
3.42392e-10,7744.96
3.54174e-10,7639.58
3.6636099999999997e-10,7536.34
3.78968e-10,7435.1900000000005
3.92009e-10,7336.11
4.0549900000000004e-10,7239.07
4.19452e-10,7144.03
4.3388600000000006e-10,7050.96
4.4881700000000003e-10,6959.84
4.6426100000000007e-10,6870.63
4.81252e-10,6777.92
4.98867e-10,6687.29
5.17125e-10,6598.740000000001
5.360540000000001e-10,6512.2
5.55672e-10,6427.660000000001
5.76012e-10,6345.07
5.97092e-10,6264.43
6.18948e-10,6185.67
6.416e-10,6108.799999999999
6.650850000000001e-10,6033.74
6.89426e-10,5960.51
7.14661e-10,5889.03
7.40816e-10,5819.320000000001
7.679330000000001e-10,5751.31
7.97725e-10,5681.14
8.28673e-10,5612.83
8.60821e-10,5546.34
8.942170000000001e-10,5481.639999999999
9.28908e-10,5418.700000000001
9.64945e-10,5357.48
1.0023800000000002e-9,5297.95
1.04127e-9,5240.08
1.08395e-9,5180.76
1.12839e-9,5123.21
1.17464e-9,5067.400000000001
1.2228000000000002e-9,5013.28
1.2729200000000002e-9,4960.83
1.3251100000000002e-9,4910.0
1.37943e-9,4860.7699999999995
1.43901e-9,4810.62
1.5011699999999999e-9,4762.139999999999
1.5660200000000001e-9,4715.3099999999995
1.63367e-9,4670.07
1.7042400000000001e-9,4626.389999999999
1.7816300000000002e-9,4582.16
1.86252e-9,4539.55
1.94709e-9,4498.509999999999
2.0398100000000002e-9,4457.17
2.1369400000000003e-9,4417.45
2.2387e-9,4379.32
2.3453e-9,4342.7
2.4621800000000003e-9,4306.009999999999
2.58489e-9,4270.86
2.71945e-9,4235.79
2.86102e-9,4202.29
3.0099600000000002e-9,4170.3
3.1733500000000004e-9,4138.5199999999995
3.34563e-9,4108.240000000001
3.53471e-9,4078.28
3.74238e-9,4048.74
3.96227e-9,4020.72
4.203940000000001e-9,3993.2
4.46036e-9,3967.17
4.74242e-9,3941.68
5.05301e-9,3916.82
5.3953499999999996e-9,3892.63
5.77305e-9,3869.17
6.19027e-9,3846.4900000000002
6.6517e-9,3824.63
7.162670000000001e-9,3803.61
7.7292e-9,3783.4500000000003
8.35818e-9,3764.1800000000003
9.07668e-9,3745.32
9.877800000000002e-9,3727.43
1.0795200000000001e-8,3710.09
1.18227e-8,3693.75
1.3003e-8,3678.0499999999997
1.4361600000000001e-8,3663.0600000000004
1.59295e-8,3648.81
1.77809e-8,3635.09
1.99738e-8,3621.99
2.258e-8,3609.5899999999997
2.52522e-8,3599.4100000000003
2.5299999999999998e-8,3599.24
2.8966300000000002e-8,3588.2200000000003
3.34456e-8,3577.88
3.90282e-8,3568.13
4.60265e-8,3559.08
5.50889e-8,3550.57
6.69191e-8,3542.7200000000003
8.26766e-8,3535.53
1.0432699999999999e-7,3528.96
1.3503099999999999e-7,3523.0
1.80404e-7,3517.62
2.50902e-7,3512.82
3.6634e-7,3508.62
5.71126e-7,3504.9700000000003
9.75146e-7,3501.87
2.10443e-5,3494.58
0.00217831,3385.3
0.00349849,3296.2799999999997
0.004478449999999999,3208.08
0.00520843,3121.52
0.00581107,3028.4300000000003
0.00628698,2933.89
0.006641879999999999,2845.84
0.00695735,2749.67
0.00723339,2646.4500000000003
0.00743056,2558.71
0.00764745,2443.69
0.00780519,2344.6699999999996
0.007943200000000001,2244.63
0.008061510000000001,2146.47
0.00817981,2034.4199999999998
0.00827839,1928.0600000000002
0.00835726,1833.14
0.00843613,1727.91
0.008515,1610.71
0.00857415,1514.24
0.0086333,1408.7
0.00869245,1293.46
0.00873189,1210.73
0.008771319999999999,1122.93
0.008820610000000001,1005.5799999999999
0.00886005,905.461
0.008899480000000001,799.6990000000001
0.00893891,688.49
0.008978350000000001,572.451
0.00903257,407.65000000000003
0.009069540000000001,295.174
0.009088760000000001,238.281
0.00910454,193.14
0.0091144,166.012
0.00912425,139.96599999999998
0.00913165,121.24999999999999
0.009137560000000001,106.85100000000001
0.00914397,91.95410000000001
0.0091489,81.03719999999998
0.00915383,70.6328
0.009157769999999999,62.706999999999994
0.00916221,54.245400000000004
0.009165910000000001,47.5942
0.009168860000000001,42.5555
0.00917207,37.3956
0.00917453,33.6474
0.009177,30.0999
0.00917946,26.761300000000002
0.00918143,24.247100000000003
0.009183400000000001,21.8777
0.00918538,19.6582
0.00918686,18.0952
0.00918864,16.3262
0.00918994,15.129
0.00919123,14.0039
0.009192520000000001,12.952399999999999
0.00919382,11.9761
0.009194929999999999,11.2005
0.00919594,10.540000000000001
0.00919696,9.92884
0.00919798,9.36772
0.00919899,8.85759
0.00920017,8.33446
0.00920115,7.94827
0.009202140000000001,7.61266
0.00920312,7.32846
0.00920392,7.136
0.00920485,6.95743
0.00920577,6.82615
0.009206540000000001,6.75342
0.00920747,6.71079
0.00920793,6.70796
0.00920885,6.73977
0.00920978,6.82217
0.009210699999999999,6.95597
0.00921162,7.14195
0.00921255,7.38095
0.00921347,7.6738
0.0092144,8.02133
0.00921523,8.38158
0.00921602,8.7637
0.009216799999999999,9.18705
0.00921785,9.81664
0.0092189,10.521899999999999
0.00921982,11.208
0.00922074,11.955
0.00922167,12.7639
0.009222590000000001,13.6356
0.00922352,14.571000000000002
0.00922456,15.709599999999998
0.00922567,17.0074
0.00922678,18.402
0.00922789,19.895
0.009229,21.4884
0.00923017,23.281200000000002
0.00923146,25.398
0.009232760000000001,27.6599
0.00923405,30.0702
0.00923535,32.6322
0.009236639999999999,35.3493
0.00923812,38.6492
0.009239599999999999,42.16160000000001
0.00924108,45.8924
0.009242559999999999,49.8473
0.009244529999999999,55.479
0.00924638,61.1419
0.00924823,67.1871
0.009250069999999999,73.6259
0.00925192,80.4708
0.00925377,87.73490000000001
0.00925562,95.432
0.00925747,103.57700000000001
0.009259930000000001,115.158
0.0092624,127.59799999999998
0.009264979999999999,141.625
0.009267200000000001,154.469
0.00926942,168.103
0.00927164,182.558
0.009273860000000002,197.867
0.00927608,214.064
0.009278660000000001,234.131
0.00928125,255.516
0.00928384,278.28
0.00928643,302.49
0.00928902,328.21500000000003
0.0092916,355.528
0.00929419,384.507
0.00929764,425.876
0.00930109,470.55499999999995
0.00930467,520.554
0.00930762,564.982
0.00931058,612.343
0.00931354,662.8059999999999
0.00931649,716.553
0.00931945,773.776
0.00932315,850.521
0.009326850000000001,933.5060000000001
0.00933054,1023.2399999999999
0.009334239999999999,1120.18
0.00933794,1224.79
0.00934163,1337.66
0.00934533,1459.51
0.009349030000000001,1591.0800000000002
0.00935272,1733.1499999999999
0.00935642,1886.6000000000001
0.00936012,2052.37
0.00936382,2231.5
0.009367509999999999,2425.1299999999997
0.00937121,2634.49
0.00937491,2860.87
0.0093786,3105.71
0.009382149999999999,3359.8599999999997
0.0093857,3634.65
0.00938925,3931.8300000000004
0.0093928,4253.18
0.00939635,4600.75
0.009399699999999999,4955.25
0.00940295,5326.05
0.00940621,5725.74
0.00940946,6156.94
0.009412710000000001,6622.39
0.00941587,7109.34
0.00941883,7600.52
0.00942178,8128.18
0.009424740000000001,8695.48
0.0094277,9305.92
0.00943066,9963.34
0.00943361,10672.0
0.00943657,11436.699999999999
0.00943953,12262.599999999999
0.00944249,13155.5
0.00944544,14121.999999999998
0.0094484,15169.1
0.009451359999999999,16305.0
0.009454319999999999,17538.5
0.00945727,18879.8
0.00946023,20339.9
0.009463190000000002,21931.5
0.009466150000000001,23668.7
0.0094691,25567.199999999997
0.009472060000000001,27644.8
0.00947502,29921.600000000002
0.00947798,32419.8
0.00948093,35164.8
0.00948389,38184.9
0.00948685,41511.8
0.009489810000000001,45181.3
0.009492760000000001,49233.0
0.00949553,53398.5
0.00949819,57804.1
0.00950085,62630.600000000006
0.00950351,67920.0
0.00950617,73716.7
0.00950883,80067.6
0.0095115,87021.0
0.00951416,94625.1
0.009516819999999999,102926.0
0.00951948,111966.00000000001
0.00952214,121776.0
0.009524800000000002,132377.0
0.00952747,143767.0
0.00953013,155918.0
0.009533680000000001,173185.0
0.00953871,199179.0
0.00954462,230243.00000000003
0.00954778,245902.00000000003
0.00955073,259273.0
0.00955369,270815.0
0.00955585,277793.0
0.00955801,283362.0
0.009560180000000001,287413.0
0.00956237,289858.0
0.00956434,290627.0
0.009566560000000002,289894.0
0.00956877,287547.0
0.00957099,283710.0
0.00957321,278547.0
0.00957654,268736.0
0.009579869999999999,257067.99999999997
0.00958484,237571.99999999997
0.00959313,203935.00000000003
0.00959727,187927.0
0.0096014,172953.0
0.00960555,159169.0
0.00960969,146616.0
0.00961383,135261.0
0.00961797,125035.0
0.00962211,115845.0
0.009626250000000001,107593.0
0.009629799999999999,101192.0
0.00963335,95349.0
0.0096369,90010.6
0.00964045,85126.8
0.00964399,80652.00000000001
0.00964754,76545.5
0.00965109,72770.7
0.00965464,69294.8
0.00965859,65747.6
0.00966253,62497.7
0.00966647,59513.9
0.00967239,55477.299999999996
0.0096783,51898.299999999996
0.00968422,48710.8
0.00969023,45814.8
0.00969629,43198.4
0.00970236,40845.3
0.00970842,38721.1
0.009714480000000001,36797.4
0.00972249,34523.4
0.00973043,32523.2
0.00973837,30733.399999999998
0.0097463,29130.2
0.00975507,27543.600000000002
0.00976469,25998.600000000002
0.0097743,24623.1
0.009783910000000002,23389.4
0.00979266,22375.0
0.009804489999999999,21144.6
0.00981632,20053.2
0.00982815,19079.5
0.009839980000000002,18206.4
0.00985181,17419.7
0.00986759,16485.3
0.00988336,15661.6
0.009899129999999999,14930.8
0.00991491,14278.599999999999
0.00993068,13693.4
0.00995434,12921.0
0.009978,12253.199999999999
0.00999772,11764.6
0.010017400000000001,11323.5
0.0100485,10714.999999999998
0.0100805,10177.300000000001
0.0101133,9702.28
0.010146599999999999,9283.56
0.0101799,8917.3
0.0102107,8617.06
0.0102501,8277.58
0.0102895,7980.24
0.0103487,7597.81
0.0104078,7275.87
0.010467,7001.29
0.0105261,6764.45
0.010605,6495.18
0.0106839,6268.65
0.010782499999999999,6029.219999999999
0.0109008,5793.389999999999
0.0110191,5599.15
0.0111571,5412.02
0.0113148,5236.61
0.0114923,5075.67
0.0116894,4930.33
0.011926,4789.4800000000005
0.0122021,4658.629999999999
0.012557,4526.63
0.0129908,4403.59
0.0135034,4293.42
0.014154100000000001,4189.24
0.0150019,4090.37
0.0159877,4007.16
0.017409900000000002,3922.28
0.0192775,3845.71
0.0219658,3771.55
0.025691000000000002,3703.3
0.0312336,3636.01
0.0397364,3567.66
0.052819500000000005,3496.77
0.0686368,3435.41
0.0686672,3438.52
0.068675,3449.56
0.0686828,3480.0499999999997
0.0686953,3553.77
0.0687001,3564.04
0.0687053,3552.68
0.0687207,3466.0
0.0687281,3445.38
0.0687453,3436.45
0.0904795,3374.72
0.11356200000000001,3334.04
0.12929600000000002,3323.73
0.13151200000000002,3327.73
0.131694,3337.12
0.131772,3355.27
0.131806,3377.42
0.131829,3409.43
0.131841,3439.54
0.131849,3473.32
0.13185500000000003,3511.7400000000002
0.13186,3548.75
0.131864,3601.58
0.131867,3657.79
0.13187000000000001,3735.84
0.131872,3813.66
0.13187500000000002,3914.52
0.131877,4045.45
0.131879,4153.53
0.13188,4281.52
0.13188200000000003,4432.53
0.131883,4584.33
0.131885,4808.29
0.131887,5072.35
0.131888,5272.84
0.131889,5494.5199999999995
0.13189,5738.540000000001
0.131891,6005.99
0.131893,6371.95
0.131894,6732.86
0.131895,7125.08
0.13189700000000001,7697.93
0.13189800000000002,8325.53
0.1319,9005.449999999999
0.13190200000000002,9731.08
0.131904,10888.4
0.13191,13663.5
0.131912,14616.499999999998
0.131914,15457.0
0.131916,16152.5
0.131918,16686.5
0.13192,17015.0
0.131921,17240.100000000002
0.131922,17400.6
0.131924,17481.899999999998
0.131924,17482.2
0.13192500000000001,17436.899999999998
0.131927,17279.5
0.13192900000000002,17002.8
0.13193,16670.899999999998
0.13193200000000002,16133.0
0.131934,15408.1
0.13193600000000003,14576.800000000001
0.131939,13373.4
0.131944,10662.9
0.131947,9588.570000000002
0.131948,8871.83
0.13194999999999998,8202.25
0.131952,7585.549999999999
0.13195300000000001,7023.84
0.13195500000000002,6639.69
0.13195600000000002,6287.42
0.131957,5966.03
0.13195900000000002,5674.929999999999
0.13196000000000002,5397.490000000001
0.131961,5150.44
0.13196300000000002,4931.4
0.131964,4738.400000000001
0.131965,4568.86
0.131967,4420.8
0.131968,4291.85
0.131969,4180.030000000001
0.131971,4056.8
0.131973,3955.07
0.131974,3871.19
0.131977,3772.21
0.13198000000000001,3697.94
0.13198300000000002,3626.06
0.13198700000000002,3566.33
0.131994,3509.02
0.132,3472.3
0.13200900000000002,3437.0
0.132027,3398.31
0.132052,3370.5699999999997
0.132086,3352.7200000000003
0.132181,3335.33
0.132599,3325.6800000000003
0.133583,3324.54
0.147683,3340.21
0.15871400000000002,3373.42
0.16874,3428.1000000000004
0.17625000000000002,3491.87
0.18260500000000002,3566.6600000000003
0.188085,3651.3300000000004
0.193023,3752.0099999999998
0.19726600000000002,3859.18
0.200439,3958.61
0.20325400000000002,4061.3700000000003
0.20657100000000003,4208.85
0.209305,4358.06
0.21177,4521.950000000001
0.213653,4676.43
0.215087,4822.08
0.21616300000000002,4961.490000000001
0.21688000000000002,5083.2300000000005
0.217418,5205.849999999999
0.21777600000000003,5316.93
0.21804500000000002,5429.34
0.218213,5521.15
0.21837,5630.83
0.21848800000000002,5736.49
0.218606,5872.92
0.21868100000000001,5984.57
0.218757,6123.74
0.218831,6299.75
0.21888700000000003,6468.650000000001
0.218928,6620.89
0.218973,6825.3
0.219007,7013.78
0.21904,7243.2699999999995
0.219074,7528.61
0.219096,7751.16
0.219116,8003.22
0.21913700000000003,8303.17
0.21915300000000004,8568.039999999999
0.219168,8876.14
0.219181,9183.160000000002
0.219195,9539.1
0.219208,9955.83
0.21921800000000002,10317.6
0.21923,10834.4
0.21923900000000002,11272.1
0.21924800000000003,11772.7
0.219257,12348.9
0.21926600000000002,13016.8
0.21927300000000002,13589.7
0.21928000000000003,14234.800000000001
0.219286,14963.699999999999
0.21929300000000002,15788.599999999999
0.21930000000000002,16723.1
0.21930700000000003,17779.3
0.219313,18967.8
0.21932000000000001,20292.6
0.21932700000000002,21748.3
0.21933400000000003,23312.7
0.21934900000000002,27085.0
0.21935600000000002,28536.0
0.21936,29358.300000000003
0.219365,30016.9
0.21936900000000004,30409.5
0.219372,30644.2
0.21937600000000002,30704.899999999998
0.21938000000000002,30579.7
0.21938300000000002,30258.5
0.219387,29741.5
0.219391,28930.4
0.219395,28098.9
0.21939799999999998,27133.2
0.21940300000000001,25474.3
0.21941000000000002,23177.4
0.21942300000000003,18353.8
0.219429,16154.5
0.219433,14782.3
0.21943700000000002,13503.099999999999
0.21944,12513.6
0.21944300000000003,11597.599999999999
0.219447,10754.999999999998
0.21945000000000003,9984.96
0.219453,9284.75
0.219456,8731.98
0.219459,8263.81
0.21946200000000002,7834.09
0.21946400000000002,7439.93
0.219467,7079.46
0.21947100000000003,6646.72
0.219474,6263.76
0.21947800000000003,5925.43
0.219481,5626.86
0.21948500000000004,5332.91
0.21948900000000002,5117.89
0.21949200000000002,4927.04
0.21949700000000003,4705.39
0.219501,4516.339999999999
0.21950599999999998,4355.070000000001
0.21951,4217.61
0.21951500000000002,4100.49
0.219521,3956.7000000000003
0.219528,3844.17
0.219535,3756.59
0.21954200000000001,3689.02
0.21955000000000002,3623.41
0.219562,3571.13
0.219575,3539.3599999999997
0.219589,3530.63
0.219611,3548.18
0.21964100000000003,3602.85
0.21976600000000002,3900.69
0.21984599999999999,4063.2200000000003
0.21992,4186.55
0.219994,4289.44
0.220104,4414.95
0.220252,4544.65
0.22040000000000004,4646.01
0.220621,4764.610000000001
0.220872,4869.16
0.22131500000000004,5011.75
0.221995,5181.07
0.22353100000000004,5497.2300000000005
0.225379,5875.38
0.226611,6156.04
0.22784300000000002,6473.56
0.22884400000000002,6770.05
0.22961399999999998,7023.7
0.22999900000000004,7157.429999999999
0.231046,7573.0199999999995
0.23178500000000002,7906.88
0.232401,8219.78
0.23314000000000001,8645.98
0.23363299999999998,8962.68
0.23412600000000003,9311.43
0.23461900000000002,9697.13
0.23486500000000002,9900.69
0.235358,10352.300000000001
0.235851,10857.6
0.23634400000000003,11425.9
0.23683600000000002,12068.4
0.237329,12798.300000000001
0.23769900000000002,13415.699999999999
0.238068,14095.1
0.23843800000000004,14857.0
0.23880800000000002,15699.0
0.23917700000000003,16648.2
0.239547,17700.899999999998
0.23979300000000003,18475.0
0.24004,19309.5
0.240286,20208.300000000003
0.24053200000000002,21174.8
0.240902,22762.8
0.24127200000000004,24496.600000000002
0.241641,26385.800000000003
0.24262700000000004,31695.5
0.24275000000000002,32326.399999999998
0.243058,33738.8
0.24336600000000003,34838.6
0.243551,35294.7
0.243736,35552.2
0.24385900000000002,35615.6
0.24404400000000004,35513.4
0.244228,35174.8
0.24437000000000003,34757.2
0.24453800000000003,34102.8
0.244704,33264.0
0.244875,32251.1
0.245152,30327.899999999998
0.24539900000000003,28419.6
0.246046,23157.600000000002
0.24620000000000003,21931.3
0.246446,20077.0
0.24669200000000002,18353.1
0.246877,17157.3
0.247062,16043.199999999999
0.247247,15017.3
0.247432,14069.5
0.24761600000000003,13204.1
0.247801,12409.5
0.247986,11688.0
0.24817100000000003,11028.1
0.24835600000000002,10430.900000000001
0.24853999999999998,9886.039999999999
0.248725,9393.92
0.24891000000000002,8945.59
0.24909500000000004,8541.15
0.249288,8157.42
0.249497,7787.37
0.249729,7419.27
0.24996000000000002,7096.99
0.250192,6810.7
0.25034700000000004,6640.09
0.250656,6339.1900000000005
0.25096500000000005,6085.549999999999
0.251274,5872.740000000001
0.251583,5694.99
0.251892,5547.39
0.252182,5432.839999999999
0.252472,5338.3099999999995
0.252906,5230.1
0.25334,5151.83
0.25363,5116.1
0.254354,5071.349999999999
0.25457100000000005,5067.51
0.255367,5089.99
0.25594700000000004,5133.75
0.256815,5235.52
0.25768399999999997,5367.45
0.258843,5586.59
0.26000100000000004,5844.0
0.26115900000000003,6134.0
0.262318,6453.24
0.263476,6799.929999999999
0.264634,7173.29
0.265793,7573.17
