E(MeV),xs(mb)
1.0e-11,46524.4
1.03223e-11,45796.6
1.06549e-11,45080.600000000006
1.0998399999999998e-11,44375.7
1.13527e-11,43682.2
1.1718599999999999e-11,42999.4
1.2096199999999998e-11,42327.6
1.24861e-11,41666.299999999996
1.2888399999999999e-11,41015.7
1.3303799999999998e-11,40375.2
1.37325e-11,39745.0
1.41751e-11,39124.7
1.4631799999999997e-11,38514.4
1.51034e-11,37913.5
1.5590099999999998e-11,37322.4
1.6092599999999998e-11,36740.5
1.66111e-11,36168.0
1.71465e-11,35604.5
1.7699e-11,35050.0
1.8269399999999998e-11,34504.2
1.88581e-11,33967.299999999996
1.94659e-11,33438.7
2.00931e-11,32918.7
2.0740699999999998e-11,32406.899999999998
2.1408999999999998e-11,31903.3
2.2099099999999997e-11,31407.600000000002
2.28111e-11,30919.9
2.3546399999999998e-11,30439.9
2.4305099999999997e-11,29967.7
2.50884e-11,29502.899999999998
2.5896799999999997e-11,29045.6
2.67315e-11,28595.5
2.75928e-11,28152.7
2.8482199999999998e-11,27716.9
2.93999e-11,27288.100000000002
3.0347499999999995e-11,26866.1
3.13253e-11,26450.999999999996
3.2335e-11,26042.399999999998
3.33769e-11,25640.5
3.44526e-11,25244.9
3.55627e-11,24855.800000000003
3.67089e-11,24472.800000000003
3.7891799999999997e-11,24096.1
3.9113e-11,23725.3
4.0373400000000003e-11,23360.6
4.1674599999999996e-11,23001.7
4.3017399999999996e-11,22648.600000000002
4.440389999999999e-11,22301.199999999997
4.58347e-11,21959.399999999998
4.7311899999999994e-11,21623.100000000002
4.883639999999999e-11,21292.300000000003
5.0410399999999995e-11,20966.8
5.20348e-11,20646.6
5.37119e-11,20331.5
5.54426e-11,20021.6
5.7229499999999995e-11,19716.7
5.907359999999999e-11,19416.8
6.09775e-11,19121.7
6.29424e-11,18831.5
6.497099999999999e-11,18545.899999999998
6.70645e-11,18265.100000000002
6.9226e-11,17988.8
7.145659999999999e-11,17717.1
7.37596e-11,17449.8
7.61364e-11,17186.9
7.85902e-11,16928.3
8.11227e-11,16674.0
8.37372e-11,16423.8
8.643549999999999e-11,16177.8
8.922119999999998e-11,15935.8
9.209619999999999e-11,15697.9
9.506439999999999e-11,15463.800000000001
9.81277e-11,15233.699999999999
1.01291e-10,15007.3
1.04554e-10,14784.8
1.07924e-10,14565.9
1.11402e-10,14350.8
1.1499200000000001e-10,14139.2
1.1869700000000001e-10,13931.199999999999
1.22523e-10,13726.6
1.26471e-10,13525.5
1.30547e-10,13327.800000000001
1.34754e-10,13133.4
1.3909700000000002e-10,12942.3
1.43579e-10,12754.5
1.48207e-10,12569.8
1.52982e-10,12388.4
1.57913e-10,12209.9
1.6300100000000001e-10,12034.6
1.68254e-10,11862.3
1.73676e-10,11692.9
1.79274e-10,11526.5
1.85443e-10,11352.1
1.91824e-10,11181.000000000002
1.9842500000000002e-10,11013.0
2.0525300000000001e-10,10848.199999999999
2.1231600000000001e-10,10686.4
2.19622e-10,10527.7
2.2717900000000003e-10,10371.999999999998
2.34997e-10,10219.199999999999
2.43083e-10,10069.300000000001
2.51448e-10,9922.22
2.60101e-10,9777.98
2.69051e-10,9636.49
2.7830900000000004e-10,9497.730000000001
2.87886e-10,9361.64
2.9779300000000004e-10,9228.199999999999
3.0804e-10,9097.35
3.1864e-10,8969.060000000001
3.29605e-10,8843.289999999999
3.4094699999999997e-10,8720.0
3.52679e-10,8599.15
3.64815e-10,8480.72
3.7736900000000005e-10,8364.65
3.9035500000000004e-10,8250.92
4.03787e-10,8139.4800000000005
4.17682e-10,8030.31
4.32055e-10,7923.37
4.4692299999999997e-10,7818.63
4.6230200000000006e-10,7716.05
4.7821e-10,7615.610000000001
4.94666e-10,7517.26
5.127690000000001e-10,7415.03
5.31539e-10,7315.089999999999
5.50992e-10,7217.42
5.7116e-10,7121.95
5.92063e-10,7028.679999999999
6.13735e-10,6937.55
6.36196e-10,6848.55
6.59484e-10,6761.62
6.836190000000001e-10,6676.75
7.086420000000001e-10,6593.87
7.34577e-10,6512.990000000001
7.61465e-10,6434.040000000001
7.89333e-10,6357.01
8.182259999999999e-10,6281.86
8.48171e-10,6208.56
8.810760000000001e-10,6132.93
9.152570000000001e-10,6059.3
9.50765e-10,5987.63
9.8765e-10,5917.889999999999
1.0259700000000001e-9,5850.04
1.0657700000000001e-9,5784.049999999999
1.1071100000000001e-9,5719.88
1.15006e-9,5657.49
1.1972100000000003e-9,5593.530000000001
1.24629e-9,5531.49
1.2973800000000001e-9,5471.3
1.3505600000000001e-9,5412.96
1.40593e-9,5356.39
1.46356e-9,5301.580000000001
1.52356e-9,5248.48
1.5893800000000002e-9,5194.38
1.65804e-9,5142.1
1.72966e-9,5091.57
1.80437e-9,5042.76
1.8863000000000004e-9,4993.32
1.9719500000000004e-9,4945.66
2.06148e-9,4899.740000000001
2.1550900000000003e-9,4855.52
2.25772e-9,4810.95
2.36522e-9,4768.13
2.47785e-9,4727.0
2.60133e-9,4685.76
2.7309800000000004e-9,4646.2300000000005
2.86707e-9,4608.38
3.01633e-9,4570.58
3.1733500000000004e-9,4534.469999999999
3.34563e-9,4498.56
3.5272400000000003e-9,4464.34
3.71872e-9,4431.72
3.9288900000000005e-9,4399.42
4.159720000000001e-9,4367.57
4.404130000000001e-9,4337.34
4.67276e-9,4307.629999999999
4.9682500000000005e-9,4278.52
5.282460000000001e-9,4251.01
5.62841e-9,4224.15
6.0097e-9,4198.01
6.43042e-9,4172.63
6.89517e-9,4148.07
7.40914e-9,4124.360000000001
7.97826e-9,4101.54
8.60931e-9,4079.6400000000003
9.309950000000001e-9,4058.66
1.01102e-8,4038.1200000000003
1.1002600000000001e-8,4018.5899999999997
1.1999e-8,4000.07
1.3141099999999999e-8,3982.1499999999996
1.4453e-8,3964.9
1.59632e-8,3948.39
1.77059e-8,3932.67
1.9722e-8,3917.77
2.21076e-8,3903.48
2.4939399999999998e-8,3889.86
2.52522e-8,3888.5299999999997
2.5299999999999998e-8,3888.33
2.8722400000000002e-8,3875.63
3.2884600000000005e-8,3863.54
3.79699e-8,3852.14
4.43075e-8,3841.3599999999997
5.22525e-8,3831.29
6.240890000000001e-8,3821.8999999999996
7.54911e-8,3813.25
9.28735e-8,3805.24
1.1669999999999999e-7,3797.82
1.5009e-7,3791.0499999999997
1.98413e-7,3784.94
2.7131999999999997e-7,3779.4500000000003
3.87864e-7,3774.56
5.85804e-7,3770.2599999999998
9.50713e-7,3766.54
6.00623e-6,3759.4599999999996
0.0080204,3708.12
0.020973500000000003,3653.7000000000003
0.0311082,3636.31
0.0312399,3636.28
0.0385531,3648.8399999999997
0.0439093,3682.15
0.0462338,3710.06
0.046294300000000004,3722.71
0.0463068,3735.8799999999997
0.046314,3760.78
0.0463176,3794.91
0.04632,3838.2000000000003
0.046322,3895.3199999999997
0.0463235,3960.1099999999997
0.0463251,4048.14
0.0463267,4165.49
0.046327999999999994,4298.89
0.04632920000000001,4441.03
0.0463304,4610.17
0.0463316,4808.3
0.0463328,5034.18
0.046334,5287.0
0.0463352,5567.719999999999
0.0463369,6034.91
0.04633930000000001,6703.43
0.046341900000000005,7496.53
0.0463434,7889.74
0.0463446,8193.339999999998
0.0463458,8428.39
0.0463469,8616.56
0.046348,8753.03
0.0463492,8829.06
0.046349999999999995,8844.69
0.0463511,8814.76
0.046352000000000004,8749.18
0.046353200000000004,8610.66
0.0463541,8457.67
0.0463555,8168.23
0.0463568,7840.97
0.0463582,7449.54
0.046362600000000004,6176.21
0.0463641,5739.860000000001
0.0463653,5439.71
0.046366500000000005,5167.11
0.046367700000000005,4927.86
0.046368900000000005,4724.400000000001
0.046369999999999995,4547.64
0.0463711,4396.28
0.0463723,4268.44
0.0463734,4161.889999999999
0.0463746,4070.0000000000005
0.0463758,3996.06
0.0463774,3920.56
0.046379000000000004,3865.91
0.0463807,3823.71
0.0463836,3781.6200000000003
0.0463874,3754.1600000000003
0.0463938,3736.08
0.0464129,3720.7200000000003
0.046512399999999995,3712.04
0.0465379,3711.96
0.0499505,3766.2
0.0526795,3831.6400000000003
0.055018500000000005,3909.21
0.0569756,3994.8100000000004
0.0589017,4105.75
0.0604425,4218.69
0.061983300000000005,4360.64
0.0631389,4490.2300000000005
0.0643908,4662.33
0.06535389999999999,4821.6900000000005
0.0663361,5014.490000000001
0.0671451,5203.46
0.0679155,5408.49
0.06864740000000001,5636.51
0.06930220000000001,5870.459999999999
0.06991850000000001,6122.650000000001
0.0705349,6411.05
0.0711512,6742.4400000000005
0.07161340000000001,7022.52
0.07207569999999999,7338.860000000001
0.0725379,7689.530000000001
0.0730002,8088.43
0.0734624,8533.390000000001
0.0737706,8864.089999999998
0.0740787,9224.08
0.0743869,9616.619999999999
0.0746951,10045.5
0.0750032,10514.8
0.0753114,11029.500000000002
0.0756196,11595.1
0.0759277,12217.7
0.07623590000000001,12904.599999999999
0.0765441,13663.9
0.07685220000000001,14504.999999999998
0.0771604,15438.5
0.07754559999999999,16755.7
0.0778538,17944.100000000002
0.07816189999999999,19270.7
0.078393,20363.000000000004
0.0786242,21559.2
0.0788553,22851.7
0.0790864,24267.699999999997
0.0793175,25797.500000000004
0.0795487,27472.0
0.0797798,29278.300000000003
0.0800109,31249.3
0.08024200000000001,33367.6
0.0804732,35664.799999999996
0.0807043,38150.3
0.0808584,39849.2
0.0811665,43519.6
0.0814747,47432.7
0.08232210000000001,58661.8
0.0826303,62505.100000000006
0.0828614,65044.899999999994
0.0830925,67242.8
0.0832466,68445.2
0.08340070000000001,69417.0
0.0835548,70138.5
0.08370889999999999,70597.9
0.0838784,70790.0
0.0840016,70716.5
0.0841711,70334.7
0.0843252,69721.4
0.0845563,68338.90000000001
0.0847875,66530.4
0.08501860000000001,64317.700000000004
0.08540380000000002,60080.200000000004
0.0864053,48068.7
0.0867135,44589.9
0.08702159999999999,41331.8
0.08740679999999999,37607.5
0.087715,34906.700000000004
0.0880232,32448.5
0.0883313,30219.100000000002
0.08863950000000001,28201.5
0.08894769999999999,26377.600000000002
0.0892558,24728.9
0.08948700000000001,23594.300000000003
0.0897951,22211.9
0.0901033,20958.899999999998
0.0904114,19822.1
0.09071960000000001,18789.0
0.09102779999999999,17848.5
0.0913359,16990.8
0.0916441,16207.0
0.0919523,15489.3
0.09226039999999999,14831.0
0.0925686,14226.0
0.0928768,13668.9
0.093339,12916.8
0.09380129999999999,12240.3
0.0942635,11642.5
0.0947257,11101.099999999999
0.09518800000000001,10618.9
0.0958043,10044.800000000001
0.09642060000000001,9541.17
0.097037,9096.89
0.09765330000000001,8703.02
0.0984237,8269.550000000001
0.0992326,7876.65
0.09981040000000001,7625.48
0.100735,7274.08
0.101544,7001.36
0.102526,6714.17
0.10373000000000002,6413.400000000001
0.104741,6194.4
0.105897,5978.54
0.10743799999999999,5731.7
0.108978,5524.45
0.11051899999999999,5348.57
0.112445,5163.02
0.114756,4980.95
0.11745300000000002,4810.18
0.12053400000000002,4654.9
0.12400100000000001,4517.69
0.127853,4399.969999999999
0.131994,4301.87
0.136906,4214.43
0.142684,4141.860000000001
0.149425,4088.52
0.15616600000000003,4063.06
0.160018,4059.43
0.166759,4073.13
0.17350000000000002,4113.6
0.17653700000000003,4146.759999999999
0.17663600000000002,4160.110000000001
0.17665200000000003,4175.07
0.17666500000000002,4209.7300000000005
0.176687,4301.0599999999995
0.17669500000000002,4312.77
0.176704,4296.84
0.17671900000000001,4221.3099999999995
0.176731,4161.53
0.176745,4134.76
0.176761,4130.28
0.176988,4142.91
0.183988,4239.4800000000005
0.189289,4342.030000000001
0.19406900000000002,4459.76
0.19712200000000002,4552.25
0.200175,4659.76
0.20322900000000002,4784.469999999999
0.20704500000000003,4969.14
0.210098,5142.59
0.213151,5343.13
0.21620499999999998,5574.76
0.219258,5842.030000000001
0.22231100000000004,6149.9
0.225364,6503.639999999999
0.227654,6800.61
0.22994400000000004,7131.75
0.23223400000000002,7492.14
0.23376000000000002,7752.43
0.236813,8318.83
0.23986800000000003,8948.029999999999
0.240887,9166.28
0.24496000000000004,10100.3
0.25240999999999997,11868.099999999999
0.255673,12563.0
0.2569,12820.3
0.257009,12888.5
0.25705100000000003,12960.0
0.257075,13051.2
0.25709,13170.0
0.25710099999999997,13316.300000000001
0.257108,13496.699999999999
0.257115,13761.300000000001
0.25712,14002.4
0.257125,14313.6
0.25713,14707.6
0.25713400000000003,15175.8
0.257139,15733.699999999999
0.257144,16456.7
0.25715,17440.3
0.25716,19153.0
0.257164,19770.0
0.257168,20322.7
0.257172,20660.1
0.25717500000000004,20889.4
0.257179,20999.6
0.25718,21008.6
0.257183,20957.499999999996
0.257186,20799.1
0.257189,20635.9
0.257193,20187.5
0.257197,19662.8
0.257201,19058.600000000002
0.257214,16773.6
0.25721900000000003,16041.0
0.257224,15461.5
0.257228,14966.0
0.257232,14595.800000000001
0.257236,14288.0
0.257242,13928.6
0.25724800000000003,13669.7
0.25725600000000004,13437.699999999999
0.257266,13253.5
0.25728,13130.2
0.25730200000000003,13031.8
0.257349,12956.4
0.257471,12923.0
0.260765,13382.400000000001
0.26274000000000003,13583.099999999999
0.26511,13724.9
0.267164,13759.2
0.268981,13715.599999999999
0.27064,13632.1
0.27301000000000003,13439.099999999999
0.27538100000000004,13162.5
0.279331,12586.900000000001
0.284071,11779.3
0.291182,10543.0
0.295922,9772.779999999999
0.300662,9081.38
0.30461200000000005,8567.65
0.30856300000000003,8105.66
0.31330300000000005,7617.63
0.318043,7192.57
0.32120400000000005,6939.93
0.325944,6603.34
0.330684,6304.09
0.335424,6044.52
0.34016500000000005,5812.33
0.34648500000000004,5545.79
0.352806,5319.51
0.35912600000000006,5129.030000000001
0.365446,4972.8
0.371767,4852.88
0.37650700000000004,4790.879999999999
0.381247,4759.299999999999
0.382828,4757.13
0.38676200000000005,4775.2
0.389863,4817.51
0.39234300000000005,4875.57
0.39482400000000006,4960.549999999999
0.39730400000000005,5079.5199999999995
0.399164,5198.08
0.401025,5342.990000000001
0.402265,5459.91
0.403505,5594.8
0.4047450000000001,5750.15
0.40598599999999996,5928.849999999999
0.40722600000000003,6134.17
0.40846600000000005,6369.799999999999
0.409706,6639.910000000001
0.410947,6949.09
0.4121870000000001,7302.34
0.413427,7704.94
0.41466700000000006,8162.26
0.415907,8679.42
0.417148,9260.71
0.41838800000000004,9908.89
0.419628,10624.1
0.420868,11402.699999999999
0.422108,12235.5
0.426139,15073.4
0.427379,15870.5
0.42862,16564.3
0.42955,16990.5
0.430542,17354.1
0.431379,17562.2
0.43234000000000006,17711.8
0.433115,17748.4
0.43420100000000006,17684.899999999998
0.435131,17531.3
0.43606100000000003,17294.3
0.43668100000000004,17119.8
0.437921,16674.5
0.44009200000000004,15744.3
0.44443200000000005,13752.7
0.44629300000000005,12957.5
0.448153,12218.500000000002
0.45001300000000005,11553.800000000001
0.45187400000000005,10948.9
0.4537340000000001,10412.6
0.455594,9927.23
0.45745500000000006,9497.730000000001
0.45993500000000004,8990.34
0.462416,8549.91
0.464896,8165.4
0.467376,7827.4400000000005
0.47047700000000003,7457.73
0.474004,7096.129999999999
0.475021,7012.0
0.47503900000000004,7011.91
0.47514500000000004,7022.52
0.47519400000000006,7046.56
0.475225,7087.6900000000005
0.475242,7141.15
0.47525100000000003,7188.12
0.4752620000000001,7283.86
0.47527,7399.530000000001
0.47527600000000003,7507.22
0.475282,7646.7
0.475287,7824.67
0.475293,8047.510000000001
0.4752970000000001,8268.92
0.47530300000000003,8576.91
0.475308,8935.07
0.475315,9494.12
0.475326,10423.0
0.475336,11218.9
0.47534200000000004,11667.400000000001
0.475346,11915.6
0.47535,12105.8
0.47535299999999997,12237.0
0.47535800000000006,12317.9
0.47536,12332.2
0.47536500000000004,12292.099999999999
0.475368,12195.9
0.4753720000000001,12046.1
0.475376,11829.9
0.475382,11418.6
0.475388,10933.3
0.4754050000000001,9525.04
0.47541200000000006,8982.0
0.47541900000000004,8555.199999999999
0.475425,8200.17
0.47543,7971.09
0.475435,7782.2300000000005
0.4754400000000001,7629.08
0.47544800000000004,7455.25
0.475456,7333.5
0.47546600000000006,7226.9800000000005
0.475479,7147.9400000000005
0.47550000000000003,7080.12
0.475543,7021.72
0.47563500000000003,6976.62
0.47595000000000004,6925.94
0.4789570000000001,6665.5199999999995
0.48540099999999997,6179.86
0.489324,5881.64
0.49156500000000003,5678.54
0.492966,5517.48
0.49401700000000004,5360.47
0.49464800000000003,5239.92
0.495208,5106.09
0.495712,4953.070000000001
0.496048,4826.34
0.496329,4700.59
0.4966090000000001,4551.64
0.49686800000000003,4390.84
0.497253,4128.0599999999995
0.497371,4061.43
0.49747199999999997,4028.2799999999997
0.4975050000000001,4025.88
0.497556,4034.46
0.49760600000000005,4062.8399999999997
0.497657,4118.98
0.49769500000000005,4185.84
0.49773500000000004,4289.19
0.49776300000000007,4384.629999999999
0.497791,4504.570000000001
0.497819,4654.15
0.49784,4789.4800000000005
0.497861,4947.96
0.497882,5133.04
0.497903,5348.51
0.49792400000000003,5598.78
0.497945,5888.96
0.497966,6224.77
0.497987,6612.14
0.498008,7057.13
0.498022,7388.7
0.49803600000000003,7750.17
0.498051,8153.34
0.49806600000000006,8602.080000000002
0.4980800000000001,9088.02
0.498095,9611.689999999999
0.498117,10467.1
0.49813900000000005,11401.699999999999
0.498161,12403.800000000001
0.49820900000000007,14693.9
0.49824,16204.099999999999
0.49826400000000004,17251.5
0.498288,18174.3
0.498309,18871.5
0.498326,19292.8
0.498342,19621.0
0.498358,19854.5
0.49837400000000004,19995.0
0.49838800000000005,20045.0
0.49840900000000005,20004.300000000003
0.498431,19840.5
0.498452,19575.6
0.49848400000000004,19037.6
0.49851599999999996,18391.9
0.49861500000000003,16235.5
0.4986570000000001,15380.7
0.498699,14599.9
0.498741,13897.2
0.498783,13269.9
0.498825,12711.699999999999
0.498867,12215.400000000001
0.498923,11637.4
0.49897900000000006,11140.4
0.49903500000000006,10710.900000000001
0.49909100000000006,10337.5
0.499147,10010.9
0.499231,9592.48
0.49932800000000005,9195.800000000001
0.499425,8866.91
0.49952100000000005,8591.609999999999
0.499618,8357.519999999999
0.499747,8096.15
0.499887,7861.99
0.5000270000000001,7667.12
0.500237,7429.59
0.500475,7218.29
0.500644,7094.99
0.5009800000000001,6895.76
0.501316,6741.0199999999995
0.5017360000000001,6589.64
0.502353,6421.79
0.503053,6280.070000000001
0.5038940000000001,6151.469999999999
0.5050150000000001,6021.89
0.506696,5877.98
0.508937,5736.95
0.511739,5600.21
0.516222,5431.29
0.519916,5314.74
0.51994,5301.34
0.519958,5271.9800000000005
0.5199760000000001,5215.22
0.5200210000000001,4999.93
0.520042,4931.05
0.5200560000000001,4906.65
0.520085,4889.42
0.527215,4791.92
0.55,5204.34
0.6000000000000001,4496.610000000001
0.6200000000000001,3813.6
0.65,2445.86
0.7000000000000001,4689.650000000001
0.7198910000000001,4632.7699999999995
0.75,3875.25
0.8,3711.46
0.82,3631.88
0.8500000000000001,6897.2300000000005
0.9,2961.53
0.9264900000000001,2663.2400000000002
0.9500000000000001,2389.5499999999997
0.96,2725.4700000000003
0.9800000000000001,2659.5499999999997
1.0,2354.54
1.05,2870.81
1.1,3304.59
1.2,2662.66
1.3,7415.62
1.30075,7653.16
1.3009,7659.900000000001
1.30151,7656.74
1.30166,7615.929999999999
1.30318,6976.650000000001
1.3044,6294.63
1.30561,5487.47
1.30723,4735.8
1.30926,4248.74
1.31088,3911.08
1.3125,3770.82
1.31397,3696.7799999999997
1.31534,3495.38
1.31615,3371.12
1.31645,3399.57
1.31676,3438.8999999999996
1.3185,3923.42
1.31856,3954.29
1.31861,3998.23
1.31868,4109.5199999999995
1.31891,4480.46
1.31896,4545.59
1.31901,4575.1900000000005
1.31903,4579.049999999999
1.3191,4563.38
1.31975,4304.23
1.3198,4260.66
1.31986,4191.71
1.32014,3763.25
1.3202,3700.34
1.32025,3672.2000000000003
1.32033,3655.46
1.32223,3433.47
1.32791,3429.17
1.33613,3295.98
1.35275,3085.01
1.36937,2890.15
1.37768,2890.33
1.38599,2756.64
1.3943,2821.8399999999997
1.39707,2622.69
1.40261,2485.71
1.42615,2488.3799999999997
1.42623,2488.33
1.43308,2493.5
1.43862,2705.4900000000002
1.44135,3094.6600000000003
1.44139,3095.43
1.4415,3079.79
1.4441,2518.8199999999997
1.4442,2505.5499999999997
1.45524,2502.1200000000003
1.4638,2438.49
1.47187,2443.65
1.4774,2578.7200000000003
1.48294,2313.3599999999997
1.49402,2316.47
1.5,2251.14
1.5274,2124.6200000000003
1.53774,1924.18
1.55496,1655.48
1.56181,1313.85
1.56189,1302.3899999999999
1.56202,1268.47
1.56519,405.83799999999997
1.56523,396.649
1.56526,392.407
1.56529,390.657
1.5653,390.918
1.56533,393.824
1.56535,399.576
1.56539,411.83
1.56552,455.89500000000004
1.56869,1630.86
1.56877,1651.21
1.56885,1660.18
1.57219,1866.04
1.58253,1807.01
1.59287,2222.82
1.59976,2974.61
1.60665,3656.66
1.61354,3864.31
1.61699,3867.1600000000003
1.62732,4139.2699999999995
1.63421,4207.0
1.64778,3868.7
1.65833,3458.04
1.66522,3387.9700000000003
1.67556,3184.79
1.6859,3253.7
1.69623,3600.1
1.69968,4080.85
1.70313,5038.95
1.70657,6455.05
1.70997,6850.64
1.71002,6846.35
1.71024,6759.05
1.71346,5242.82
1.71691,4213.9
1.71992,3438.55
1.72035,3333.17
1.72724,3051.2999999999997
1.73241,3050.29
1.73414,3050.73
1.73758,3112.69
1.74447,2437.5499999999997
1.74706,2337.4700000000003
1.74792,2308.78
1.74986,2563.92
1.75029,2631.17
1.75395,3243.16
1.75481,3380.94
1.7574,3159.11
1.76176,2776.08
1.76515,2574.91
1.77893,2368.57
