E(MeV),xs(mb)
1.0e-11,37842.3
1.03223e-11,37259.4
1.06549e-11,36686.1
1.0998399999999998e-11,36121.8
1.13527e-11,35566.9
1.1718599999999999e-11,35020.6
1.2096199999999998e-11,34483.4
1.24861e-11,33954.6
1.2888399999999999e-11,33434.6
1.3303799999999998e-11,32922.799999999996
1.37325e-11,32419.4
1.41751e-11,31924.0
1.4631799999999997e-11,31436.8
1.51034e-11,30957.3
1.5590099999999998e-11,30485.8
1.6092599999999998e-11,30021.8
1.66111e-11,29565.5
1.71465e-11,29116.5
1.7699e-11,28674.9
1.8269399999999998e-11,28240.4
1.88581e-11,27813.1
1.94659e-11,27392.699999999997
2.00931e-11,26979.3
2.0740699999999998e-11,26572.5
2.1408999999999998e-11,26172.5
2.2099099999999997e-11,25779.0
2.28111e-11,25392.100000000002
2.3546399999999998e-11,25011.5
2.4305099999999997e-11,24637.2
2.50884e-11,24269.0
2.5896799999999997e-11,23907.0
2.67315e-11,23550.9
2.75928e-11,23200.9
2.8482199999999998e-11,22856.5
2.93999e-11,22517.999999999996
3.0347499999999995e-11,22185.0
3.13253e-11,21857.7
3.2335e-11,21535.8
3.33769e-11,21219.399999999998
3.44526e-11,20908.2
3.55627e-11,20602.3
3.67089e-11,20301.5
3.7891799999999997e-11,20005.899999999998
3.9113e-11,19715.2
4.0373400000000003e-11,19429.5
4.1674599999999996e-11,19148.7
4.3017399999999996e-11,18872.6
4.440389999999999e-11,18601.3
4.58347e-11,18334.600000000002
4.7311899999999994e-11,18072.5
4.883639999999999e-11,17815.0
5.0410399999999995e-11,17561.8
5.21451e-11,17296.6
5.39395e-11,17036.4
5.57956e-11,16781.0
5.7715599999999995e-11,16530.3
5.97017e-11,16284.400000000001
6.17561e-11,16043.0
6.38812e-11,15806.199999999999
6.60794e-11,15573.9
6.83532e-11,15346.0
7.07054e-11,15122.4
7.31384e-11,14903.1
7.56552e-11,14687.9
7.825859999999999e-11,14477.0
8.09515e-11,14270.099999999999
8.37372e-11,14067.199999999999
8.661869999999999e-11,13868.3
8.959929999999999e-11,13673.3
9.268249999999999e-11,13482.099999999999
9.587189999999999e-11,13294.699999999999
9.91709e-11,13111.0
1.0258400000000002e-10,12930.900000000001
1.06114e-10,12754.5
1.0976500000000001e-10,12581.7
1.13543e-10,12412.300000000001
1.1745000000000002e-10,12246.4
1.21491e-10,12083.8
1.25672e-10,11924.699999999999
1.29996e-10,11768.8
1.3447e-10,11616.1
1.3909700000000002e-10,11466.6
1.44187e-10,11311.3
1.49465e-10,11159.4
1.5493500000000002e-10,11011.0
1.6060700000000003e-10,10865.9
1.66484e-10,10724.1
1.7257800000000002e-10,10585.599999999999
1.78894e-10,10450.4
1.85443e-10,10318.199999999999
1.92229e-10,10189.3
1.9926600000000002e-10,10063.3
2.0655800000000002e-10,9940.36
2.14119e-10,9820.35
2.21955e-10,9703.27
2.3008000000000002e-10,9589.01
2.39006e-10,9471.109999999999
2.4827800000000003e-10,9356.289999999999
2.5791e-10,9244.490000000002
2.67915e-10,9135.67
2.7830900000000004e-10,9029.76
2.89106e-10,8926.72
3.0032199999999997e-10,8826.470000000001
3.1197300000000004e-10,8728.98
3.24076e-10,8634.18
3.3736e-10,8536.99
3.51191e-10,8442.66
3.6558600000000004e-10,8351.16
3.8057400000000004e-10,8262.4
3.96174e-10,8176.360000000001
4.12416e-10,8092.930000000001
4.30232e-10,8007.889999999999
4.4881700000000003e-10,7925.639999999999
4.68204e-10,7846.099999999999
4.884299999999999e-10,7769.2
5.09528e-10,7694.87
5.32662e-10,7619.5199999999995
5.5685e-10,7546.85
5.821320000000001e-10,7476.8
6.08566e-10,7409.27
6.37545e-10,7341.160000000001
6.67904e-10,7275.65
6.99708e-10,7212.67
7.34577e-10,7149.4400000000005
7.71188e-10,7088.77
8.09618e-10,7030.59
8.51766e-10,6972.42
8.96107e-10,6916.75
9.44755e-10,6861.32
9.96039e-10,6808.379999999999
1.05233e-9,6755.849999999999
1.1118100000000001e-9,6705.79
1.17713e-9,6656.3
1.24629e-9,6609.2300000000005
1.3223100000000002e-9,6562.839999999999
1.40296e-9,6518.799999999999
1.49169e-9,6475.54
1.5893800000000002e-9,6433.16
1.69705e-9,6391.77
1.8120200000000001e-9,6352.67
1.9388700000000004e-9,6314.59
2.07899e-9,6277.59
2.23397e-9,6241.73
2.4055800000000003e-9,6207.06
2.59584e-9,6173.62
2.81303e-9,6140.6
3.05484e-9,6108.98
3.3244600000000003e-9,6078.75
3.6332200000000004e-9,6049.24
3.9790600000000005e-9,6021.21
4.37627e-9,5994.06
4.83355e-9,5967.88
5.361220000000001e-9,5942.77
5.97171e-9,5918.78
6.679890000000001e-9,5895.97
7.51961e-9,5873.99
8.50077e-9,5853.3
9.671130000000001e-9,5833.580000000001
1.1095999999999999e-8,5814.639999999999
1.2839e-8,5796.599999999999
1.4982e-8,5779.58
1.7631200000000002e-8,5763.63
2.09693e-8,5748.63
2.52522e-8,5734.530000000001
2.5299999999999998e-8,5734.4
3.09288e-8,5721.14
3.8373499999999996e-8,5708.85
4.852490000000001e-8,5697.4
6.26734e-8,5686.83
8.302699999999999e-8,5677.1
1.13296e-7,5668.21
1.6025799999999998e-7,5660.15
2.36478e-7,5652.910000000001
3.68672e-7,5646.4400000000005
6.149989999999999e-7,5640.73
1.1181099999999998e-6,5635.6900000000005
2.4209100000000002e-5,5616.0
0.000290115,5546.700000000001
0.00032039,5514.25
0.00033166000000000006,5476.09
0.000336356,5440.8099999999995
0.000340113,5387.83
0.00034384000000000004,5304.14
0.000343928,5304.12
0.00034445600000000004,5320.62
0.00034472100000000004,5350.86
0.000344916,5395.43
0.000345078,5461.070000000001
0.000345185,5532.37
0.000345264,5607.92
0.00034533700000000003,5706.68
0.00034541,5845.259999999999
0.000345459,5968.49
0.000345508,6124.63
0.00034555699999999997,6322.71
0.000345594,6505.45
0.00034563000000000004,6723.6
0.000345663,6955.549999999999
0.00034569600000000005,7226.69
0.000345729,7542.92
0.000345762,7910.74
0.000345795,8337.300000000001
0.000345828,8830.26
0.000345862,9397.880000000001
0.000345884,9822.039999999999
0.00034590600000000005,10285.9
0.000345928,10792.2
0.00034595,11343.7
0.000345972,11943.2
0.000345997,12706.900000000001
0.000346027,13669.9
0.000346056,14734.9
0.00034608500000000004,15907.9
0.00034611500000000003,17194.2
0.000346144,18598.3
0.000346173,20123.899999999998
0.000346203,21773.8
0.000346237,23857.4
0.000346266,25779.2
0.00034630500000000004,28532.899999999998
0.000346345,31496.300000000003
0.00034637400000000004,33847.0
0.000346413,37135.2
0.000346472,42338.899999999994
0.00034664000000000006,57912.9
0.000346706,63619.8
0.000346753,67328.3
0.0003468,70618.7
0.000346847,73400.0
0.000346894,75593.5
0.000346941,77136.3
0.000346981,77912.40000000001
0.00034702,78151.3
0.000347048,78020.3
0.00034708800000000006,77394.6
0.00034712800000000004,76241.5
0.00034716300000000005,74880.4
0.00034720000000000004,73021.59999999999
0.000347247,70204.4
0.000347299,66566.7
0.000347361,61640.49999999999
0.00034743800000000004,54914.8
0.00034755600000000006,44448.8
0.000347614,39436.6
0.000347653,36262.1
0.000347693,33252.700000000004
0.000347732,30428.199999999997
0.00034776500000000004,28182.999999999996
0.00034780600000000004,25615.0
0.00034783400000000004,24030.999999999996
0.00034786100000000004,22549.199999999997
0.00034788800000000003,21168.2
0.000347916,19886.2
0.00034794299999999997,18700.2
0.00034797,17606.6
0.000348001,16507.5
0.000348031,15509.5
0.00034806100000000004,14606.300000000001
0.000348091,13791.599999999999
0.000348121,13058.9
0.00034815100000000005,12401.599999999999
0.000348181,11813.499999999998
0.000348211,11288.3
0.000348241,10820.0
0.00034827100000000004,10403.199999999999
0.000348304,10007.1
0.00034834000000000004,9613.73
0.000348377,9273.099999999999
0.000348414,8977.95
0.00034846300000000003,8644.17
0.000348511,8366.81
0.00034856,8134.99
0.00034863400000000006,7853.679999999999
0.000348707,7632.08
0.00034878100000000005,7453.67
0.00034887800000000006,7263.38
0.00034897600000000003,7111.27
0.00034907400000000005,6985.96
0.00034926,6798.03
0.00034944600000000006,6654.29
0.00034972500000000006,6491.5
0.00035001300000000004,6366.4800000000005
0.00035040500000000003,6241.5
0.000350835,6141.6
0.000351539,6028.41
0.000352322,5944.66
0.00035310500000000004,5886.12
0.00035467,5809.910000000001
0.000357018,5745.15
0.000360148,5697.77
0.000366723,5649.84
0.00038126400000000003,5610.490000000001
0.00042360200000000003,5578.8
0.000675894,5533.31
0.00136037,5427.23
0.00177451,5327.860000000001
0.0018432400000000001,5310.16
0.00185749,5323.1900000000005
0.00186109,5348.77
0.0018628,5383.47
0.00186396,5437.43
0.0018645600000000001,5498.3
0.0018648800000000002,5560.81
0.00186509,5629.120000000001
0.0018652500000000002,5704.5599999999995
0.00186541,5811.63
0.00186552,5907.35
0.0018656299999999998,6028.679999999999
0.00186574,6182.179999999999
0.00186584,6375.57
0.00186592,6552.26
0.001866,6760.78
0.0018661,7050.72
0.00186618,7345.139999999999
0.00186626,7687.75
0.0018663400000000002,8084.339999999999
0.00186642,8540.91
0.0018665,9063.49
0.00186656,9502.32
0.00186662,9983.96
0.00186668,10510.8
0.00186675,11219.1
0.00186683,12076.3
0.00186691,13024.800000000001
0.00186699,14067.199999999999
0.0018670800000000001,15203.800000000001
0.0018671599999999999,16434.100000000002
0.00186724,17755.2
0.00186734,19649.1
0.00186745,21678.0
0.0018675999999999999,24629.4
0.00186796,32204.5
0.00186809,34720.4
0.00186822,37002.6
0.00186834,38872.6
0.0018684300000000001,39977.299999999996
0.0018685099999999999,40820.2
0.0018686,41586.0
0.00186869,42037.4
0.00186879,42233.5
0.0018688,42235.4
0.0018689,42080.200000000004
0.00186899,41665.0
0.0018690800000000002,40936.399999999994
0.00186918,39841.9
0.00186928,38583.7
0.00186937,37266.5
0.0018694900000000001,35020.4
0.00186962,32529.8
0.0018698500000000002,27725.1
0.00187005,23604.0
0.0018701700000000002,21248.7
0.00187028,19247.1
0.0018703600000000002,17836.0
0.0018704400000000001,16510.6
0.00187052,15275.7
0.0018706,14134.199999999999
0.00187068,13086.800000000001
0.00187076,12133.199999999999
0.0018708400000000001,11271.1
0.0018709199999999999,10497.0
0.001871,9806.74
0.00187108,9233.58
0.00187115,8741.57
0.00187122,8304.95
0.0018712899999999998,7919.150000000001
0.00187137,7579.97
0.00187144,7283.01
0.00187151,7024.12
0.00187158,6799.2699999999995
0.00187166,6604.73
0.0018717500000000001,6386.4400000000005
0.00187185,6199.3099999999995
0.0018719600000000002,6041.92
0.00187207,5917.39
0.0018722300000000001,5778.030000000001
0.00187239,5680.23
0.00187255,5611.07
0.0018727799999999999,5545.49
0.00187313,5483.780000000001
0.0018736,5437.42
0.00187446,5391.47
0.00187617,5348.66
0.00187917,5320.17
0.0018892400000000001,5296.97
0.0021878099999999997,5158.0199999999995
0.00230342,5091.35
0.0023126,5103.73
0.00231547,5128.88
0.00231675,5157.9
0.00231758,5196.19
0.0023181,5246.5
0.0023184300000000002,5307.53
0.00231864,5374.889999999999
0.00231881,5448.5
0.00231897,5550.950000000001
0.00231913,5693.360000000001
0.00231924,5817.4400000000005
0.00231935,5970.73
0.0023194599999999998,6159.139999999999
0.00231957,6389.29
0.0023196500000000004,6593.72
0.00231973,6829.049999999999
0.00231982,7118.21
0.0023199,7450.95
0.00231999,7831.8099999999995
0.00232008,8265.21
0.0023201700000000003,8755.599999999999
0.0023202500000000003,9306.98
0.0023203399999999997,9923.130000000001
0.00232043,10607.1
0.00232051,11312.3
0.0023205900000000004,12080.599999999999
0.00232067,12912.4
0.00232075,13807.3
0.00232086,15096.0
0.00232096,16415.6
0.00232107,17818.8
0.0023212199999999997,20052.2
0.00232164,26432.2
0.0023218,28673.7
0.0023219300000000003,30377.6
0.00232206,31872.5
0.0023221500000000003,32727.5
0.00232226,33631.799999999996
0.0023223600000000003,34248.3
0.00232247,34677.9
0.00232258,34860.7
0.0023226,34866.0
0.00232271,34730.1
0.0023228,34424.0
0.0023229,33904.6
0.00232299,33271.2
0.00232308,32427.199999999997
0.00232321,31092.9
0.00232334,29478.5
0.00232348,27561.100000000002
0.0023236900000000002,24350.3
0.0023239899999999997,19800.7
0.00232415,17640.0
0.0023242500000000004,16283.099999999999
0.0023243499999999998,14956.3
0.0023244600000000004,13679.5
0.00232454,12793.699999999999
0.00232462,11971.099999999999
0.0023247,11212.0
0.00232477,10627.5
0.0023248500000000003,9982.67
0.0023249300000000002,9397.65
0.00232502,8869.93
0.0023251,8396.5
0.00232518,7974.070000000001
0.00232526,7599.12
0.0023253400000000004,7267.99
0.00232544,6932.089999999999
0.00232552,6683.2
0.0023256,6466.66
0.00232571,6222.2699999999995
0.00232582,6021.759999999999
0.00232593,5858.23
0.00232604,5725.6
0.0023262,5573.04
0.0023263600000000004,5463.0599999999995
0.00232647,5407.48
0.00232669,5326.82
0.00232701,5254.41
0.00232751,5197.849999999999
0.0023283,5155.63
0.00232956,5122.150000000001
0.00233234,5091.08
0.00234058,5065.05
0.00249653,4911.29
0.0025893,4790.2300000000005
0.00266885,4653.54
0.00272857,4521.099999999999
0.00277635,4388.6
0.00281816,4245.5199999999995
0.00285287,4101.009999999999
0.0028808600000000003,3962.2099999999996
0.00290885,3796.69
0.00292564,3681.4
0.0029472,3511.3599999999997
0.0029649200000000002,3349.25
0.00297733,3220.7599999999998
0.00299076,3065.2599999999998
0.0030050500000000004,2877.78
0.0030149,2733.16
0.00302479,2573.47
0.00303464,2398.77
0.00304791,2148.72
0.00305015,2113.08
0.0030517400000000003,2095.44
0.0030526900000000003,2091.84
0.0030535899999999997,2098.32
0.00305422,2115.0699999999997
0.00305464,2139.05
0.00305492,2166.74
0.00305513,2198.14
0.00305534,2243.68
0.00305548,2285.17
0.0030556199999999998,2338.66
0.00305576,2407.6
0.00305586,2471.96
0.00305597,2549.51
0.00305607,2642.75
0.00305618,2754.45
0.00305628,2887.7799999999997
0.00305635,2990.42
0.0030564200000000002,3105.3799999999997
0.0030564900000000002,3233.85
0.0030565600000000003,3377.1200000000003
0.0030566300000000003,3536.52
0.0030567000000000003,3713.44
0.0030567700000000003,3909.31
0.00305684,4125.6
0.00305691,4363.83
0.00305698,4625.47
0.00305705,4912.04
0.00305712,5225.0199999999995
0.00305719,5565.87
0.00305726,5935.92
0.00305733,6336.42
0.0030574,6768.58
0.00305747,7233.39
0.00305754,7731.67
0.00305761,8264.07
0.00305768,8831.05
0.00305779,9746.539999999999
0.00305789,10739.4
0.003058,11807.300000000001
0.0030581000000000002,12946.1
0.00305821,14149.7
0.00305836,16033.0
0.00305857,18676.8
0.00305885,22293.0
0.00305904,24621.9
0.0030592,26472.3
0.0030593499999999997,27992.0
0.00305946,28977.2
0.00305956,29667.0
0.00305966,30272.3
0.00305978,30786.5
0.0030598900000000004,31091.199999999997
0.0030600000000000002,31180.4
0.0030601,31098.4
0.0030602100000000003,30832.0
0.00306031,30408.1
0.0030604399999999998,29650.2
0.00306057,28667.5
0.0030607000000000004,27496.0
0.00306085,25860.8
0.0030610200000000002,23875.8
0.0030612400000000002,21109.0
0.0030615800000000004,16623.7
0.00306173,14725.5
0.00306186,13284.7
0.00306198,11928.4
0.00306207,10973.3
0.0030621800000000003,9950.8
0.00306228,9005.19
0.00306235,8418.08
0.00306242,7865.509999999999
0.00306249,7347.349999999999
0.00306256,6862.95
0.00306263,6411.67
0.0030627000000000002,6009.03
0.0030627700000000002,5635.06
0.00306283,5288.56
0.0030629,4968.45
0.00306297,4673.42
0.00306303,4402.25
0.0030631,4153.59
0.00306317,3926.2000000000003
0.00306324,3718.6400000000003
0.0030633,3529.69
0.00306338,3336.5
0.00306344,3192.89
0.00306353,3001.16
0.00306363,2835.01
0.0030637200000000002,2691.49
0.00306382,2567.85
0.00306391,2461.58
0.0030640000000000003,2370.4
0.0030640999999999997,2292.29
0.0030642200000000003,2205.28
0.0030643500000000004,2134.49
0.00306449,2068.86
0.00306464,2016.7000000000003
0.00306483,1962.78
0.0030650200000000003,1921.72
0.0030653100000000003,1875.96
0.0030656900000000003,1832.4
0.00306617,1792.45
0.00306675,1755.0600000000002
0.00306762,1709.82
0.0030686900000000002,1663.02
0.0030701900000000004,1606.6499999999999
0.0030721900000000003,1538.84
0.00308458,1145.6
0.00309084,939.931
0.00310086,604.859
0.00310393,505.267
0.0031061200000000004,436.806
0.0031078800000000004,384.466
0.0031095199999999997,337.945
0.00311084,302.98199999999997
0.00311182,278.353
0.00311281,255.29099999999997
0.00311361,237.91400000000002
0.0031143100000000003,223.65200000000002
0.00311502,210.495
0.00311572,198.542
0.00311643,187.904
0.00311714,178.625
0.00311762,173.229
0.0031181,168.612
0.00311858,164.822
0.00311909,161.799
0.00311961,159.734
0.00312012,158.86599999999999
0.00312036,158.855
0.0031206700000000003,159.238
0.0031211000000000003,160.584
0.00312154,162.918
0.00312194,165.909
0.00312231,169.546
0.0031227100000000003,174.38400000000001
0.00312312,180.377
0.00312361,188.964
0.00312399,196.701
0.00312436,205.472
0.00312477,216.37400000000002
0.00312526,231.045
0.00312575,247.76600000000002
0.0031261600000000002,263.611
0.00312654,279.438
0.00312692,296.68800000000005
0.00312729,315.43199999999996
0.0031276700000000004,335.74
0.00312804,357.692
0.0031284200000000002,381.368
0.00312879,406.855
0.0031291699999999997,434.241
0.00312942,453.602
0.00312992,495.102
0.00313041,539.3340000000001
0.0031309000000000003,587.53
0.0031313900000000004,639.9530000000001
0.00313188,696.884
0.00313236,758.625
0.0031328299999999996,821.9440000000001
0.00313328,888.278
0.00313373,959.573
0.0031341800000000003,1036.1499999999999
0.0031346300000000002,1118.35
0.00313511,1211.64
0.00313563,1323.07
0.00313616,1443.91
0.00313669,1574.8999999999999
0.00313721,1716.8600000000001
0.00313774,1870.67
0.00313826,2037.29
0.0031387900000000002,2217.79
0.00313932,2413.3300000000004
0.00313984,2625.18
0.00314037,2854.75
0.0031408900000000003,3103.58
0.0031414200000000002,3373.38
0.00314195,3666.0
0.00314247,3983.5699999999997
0.003143,4328.34
0.0031435200000000003,4702.91
0.0031440500000000002,5110.089999999999
0.00314458,5553.08
0.0031451,6035.38
0.0031456300000000004,6560.990000000001
0.00314615,7134.31
0.0031467200000000004,7807.26
0.00314728,8547.64
0.00314785,9363.279999999999
0.0031482199999999998,9953.16
0.0031486,10583.3
0.00314897,11257.0
0.0031495000000000004,12274.9
0.00315,13350.2
0.0031505,14531.199999999999
0.00315101,15830.5
0.00315151,17262.6
0.0031520000000000003,18786.0
0.0031524500000000002,20338.5
0.0031528999999999997,22040.4
0.00315335,23909.5
0.0031538,25965.8
0.0031542500000000004,28232.499999999996
0.00315467,30561.5
0.00315509,33121.7
0.0031555100000000003,35941.6
0.0031559300000000004,39053.7
0.0031563500000000005,42495.799999999996
0.00315664,44994.899999999994
0.00315692,47674.200000000004
0.0031572,50549.600000000006
0.0031574800000000003,53638.700000000004
0.0031577600000000003,56961.1
0.0031580400000000004,60538.2
0.00315832,64394.0
0.0031586,68554.6
0.00315886,72716.7
0.00315922,79003.9
0.00315958,85970.5
0.00315982,91035.29999999999
0.00316006,96470.0
0.0031603,102306.00000000001
0.0031605400000000003,108579.0
0.00316086,117686.0
0.00316116,127077.0
0.00316147,137384.0
0.0031617700000000004,148706.0
0.00316207,161147.0
0.0031623700000000003,174821.0
0.00316267,189848.0
0.00316297,206350.0
0.0031632699999999997,224449.0
0.00316357,244264.0
0.00316387,265898.0
0.00316414,286997.0
0.0031644100000000003,309677.0
0.00316468,333950.0
0.00316504,368739.0
0.0031654300000000003,408792.00000000006
0.00316589,459840.0
0.0031669299999999997,579681.0
0.00316738,629498.0
0.00316772,662990.0
0.0031680600000000003,692157.0
0.0031684,715929.0
0.00316863,728332.0
0.00316885,737736.0
0.00316914,745176.0
0.0031694,747368.0
0.00316964,745683.0
0.00316988,740486.0
0.00317012,731960.0
0.00317044,715853.0
0.00317076,695018.0
0.00317108,670311.0
0.00317157,627969.0
0.0031724500000000003,542627.0
0.00317315,475538.0
0.0031735699999999997,437810.0
0.00317399,402650.00000000006
0.00317441,370303.0
0.00317483,340821.0
0.00317525,314127.0
0.0031756700000000002,290059.0
0.00317609,268412.0
0.00317637,255215.0
0.0031767400000000004,239576.0
0.0031771,225304.0
0.00317746,212269.0
0.00317782,200351.0
0.0031781799999999996,189438.0
0.00317854,179432.0
0.0031789,170241.0
0.00317926,161785.0
0.0031796600000000004,153163.0
0.00318006,145272.0
0.00318046,138033.0
0.00318086,131378.0
0.00318146,122363.0
0.00318207,114355.0
0.0031827,106875.00000000001
0.0031833900000000004,99613.5
0.0031840799999999997,93180.70000000001
0.00318477,87454.59999999999
0.00318546,82333.20000000001
0.00318615,77731.9
0.00318692,73181.5
0.00318768,69100.2
0.00318844,65425.3
0.0031892,62104.2
0.0031899600000000004,59091.5
0.0031907199999999998,56348.3
0.0031918700000000003,52667.299999999996
0.0031927500000000003,50132.899999999994
0.00319375,47531.299999999996
0.00319475,45187.299999999996
0.00319575,43066.5
0.00319676,41140.4
0.00319826,38564.2
0.00319976,36305.8
0.00320126,34312.4
0.00320277,32542.2
