E(MeV),xs(mb)
1.0e-11,43023.7
1.03223e-11,42360.0
1.06549e-11,41707.299999999996
1.0998399999999998e-11,41064.8
1.13527e-11,40432.9
1.1718599999999999e-11,39810.8
1.2096199999999998e-11,39199.1
1.24861e-11,38596.9
1.2888399999999999e-11,38004.7
1.3303799999999998e-11,37421.799999999996
1.37325e-11,36848.5
1.41751e-11,36284.299999999996
1.4631799999999997e-11,35729.4
1.51034e-11,35183.3
1.5590099999999998e-11,34646.2
1.6092599999999998e-11,34117.700000000004
1.66111e-11,33597.9
1.71465e-11,33086.4
1.7699e-11,32583.3
1.8269399999999998e-11,32088.3
1.88581e-11,31601.499999999996
1.94659e-11,31122.5
2.00931e-11,30651.5
2.0740699999999998e-11,30188.0
2.1408999999999998e-11,29732.2
2.2099099999999997e-11,29283.800000000003
2.28111e-11,28842.8
2.3546399999999998e-11,28409.0
2.4305099999999997e-11,27982.399999999998
2.50884e-11,27562.7
2.5896799999999997e-11,27150.1
2.67315e-11,26744.2
2.75928e-11,26345.100000000002
2.8482199999999998e-11,25952.5
2.93999e-11,25566.5
3.0347499999999995e-11,25186.8
3.13253e-11,24813.5
3.2335e-11,24446.4
3.33769e-11,24085.5
3.44526e-11,23730.5
3.55627e-11,23381.6
3.67089e-11,23038.4
3.7891799999999997e-11,22701.2
3.9113e-11,22369.500000000004
4.0373400000000003e-11,22043.4
4.1674599999999996e-11,21722.899999999998
4.3017399999999996e-11,21407.8
4.440389999999999e-11,21098.1
4.58347e-11,20793.6
4.7311899999999994e-11,20494.3
4.883639999999999e-11,20200.2
5.0410399999999995e-11,19911.1
5.20348e-11,19627.0
5.37119e-11,19347.8
5.556009999999999e-11,19055.3
5.7472e-11,18768.2
5.94497e-11,18486.4
6.14954e-11,18209.8
6.36116e-11,17938.5
6.58005e-11,17672.1
6.806479999999999e-11,17410.8
7.040699999999999e-11,17154.5
7.28298e-11,16902.9
7.53359e-11,16656.2
7.79283e-11,16414.1
8.06099e-11,16176.6
8.33838e-11,15943.7
8.62531e-11,15715.300000000001
8.922119999999998e-11,15491.3
9.229139999999999e-11,15271.699999999999
9.54673e-11,15056.300000000001
9.87524e-11,14845.1
1.02151e-10,14638.1
1.05666e-10,14435.199999999999
1.0930200000000002e-10,14236.3
1.1306300000000001e-10,14041.300000000001
1.16954e-10,13850.3
1.20979e-10,13663.0
1.25142e-10,13479.6
1.29448e-10,13299.9
1.3390200000000001e-10,13123.800000000001
1.3851e-10,12951.4
1.43276e-10,12782.500000000002
1.48207e-10,12617.1
1.5363000000000002e-10,12445.1
1.59254e-10,12276.9
1.65082e-10,12112.5
1.71125e-10,11951.8
1.7738700000000002e-10,11794.7
1.8388100000000002e-10,11641.2
1.9061e-10,11491.199999999999
1.97587e-10,11344.6
2.04818e-10,11201.5
2.1231600000000001e-10,11061.6
2.20086e-10,10925.1
2.28142e-10,10791.699999999999
2.3649100000000004e-10,10661.5
2.45148e-10,10534.4
2.5412e-10,10410.4
2.6397800000000004e-10,10282.3
2.74219e-10,10157.5
2.84857e-10,10036.0
2.9590800000000005e-10,9917.57
3.07388e-10,9802.27
3.1931300000000003e-10,9690.02
3.31701e-10,9580.74
3.4457000000000003e-10,9474.38
3.5869600000000003e-10,9365.21
3.73399e-10,9259.16
3.8870800000000003e-10,9156.13
4.04641e-10,9056.1
4.2123e-10,8958.949999999999
4.3849600000000005e-10,8864.66
4.56473e-10,8773.12
4.76192e-10,8679.68
4.967620000000001e-10,8589.16
5.182210000000001e-10,8501.480000000001
5.40607e-10,8416.57
5.6396e-10,8334.339999999998
5.89565e-10,8250.83
6.16336e-10,8170.09
6.443190000000001e-10,8092.090000000001
6.735769999999999e-10,8016.7
7.056520000000001e-10,7940.47
7.39254e-10,7866.94
7.74456e-10,7796.04
8.13049e-10,7724.62
8.53571e-10,7655.85
8.96107e-10,7589.66
9.42757e-10,7523.23
9.91835e-10,7459.39
1.04347e-9,7398.030000000001
1.1001200000000001e-9,7336.65
1.15983e-9,7277.77
1.22538e-9,7219.05
1.2946400000000002e-9,7162.79
1.3707100000000001e-9,7106.849999999999
1.4512400000000003e-9,7053.33
1.53975e-9,7000.27
1.63367e-9,6949.56
1.7369900000000002e-9,6899.41
1.8468300000000001e-9,6851.549999999999
1.96778e-9,6804.33
2.1011e-9,6757.85
2.24343e-9,6713.599999999999
2.4004900000000003e-9,6670.15
2.5739800000000002e-9,6627.5599999999995
2.76585e-9,6585.92
2.9783e-9,6545.28
3.21387e-9,6505.72
3.4754200000000004e-9,6467.259999999999
3.7662000000000005e-9,6429.96
4.08995e-9,6393.84
4.45093e-9,6358.92
4.85404e-9,6325.22
5.3048400000000005e-9,6292.76
5.809780000000001e-9,6261.54
6.389770000000001e-9,6230.889999999999
7.04252e-9,6201.55
7.794850000000001e-9,6172.93
8.664110000000001e-9,6145.120000000001
9.65068e-9,6118.7
1.0795200000000001e-8,6093.16
1.2126500000000001e-8,6068.570000000001
1.3708800000000001e-8,6044.5599999999995
1.55632e-8,6021.639999999999
1.77433e-8,5999.81
2.0357599999999998e-8,5978.7699999999995
2.35057e-8,5958.610000000001
2.52522e-8,5949.21
2.5299999999999998e-8,5948.959999999999
2.95229e-8,5930.08
3.47432e-8,5911.98
4.12339e-8,5894.75
4.93527e-8,5878.45
5.96981e-8,5862.95
7.29798e-8,5848.34
9.035510000000001e-8,5834.52
1.13535e-7,5821.46
1.4479e-7,5809.25
1.8819699999999997e-7,5797.76
2.49843e-7,5787.0
3.39488e-7,5776.97
4.7415399999999995e-7,5767.610000000001
6.850279999999999e-7,5758.79
1.02797e-6,5750.39
3.89035e-6,5726.110000000001
4.5795700000000006e-5,5593.24
9.275180000000001e-5,5463.860000000001
9.489950000000001e-5,5476.3
9.570499999999999e-5,5508.95
9.60366e-5,5548.549999999999
9.62656e-5,5609.08
9.63722e-5,5664.29
9.64433e-5,5726.320000000001
9.649850000000002e-5,5803.04
9.653800000000002e-5,5883.92
9.657750000000002e-5,5998.31
9.660710000000001e-5,6114.99
9.663670000000001e-5,6267.21
9.66663e-5,6465.150000000001
9.66861e-5,6628.4
9.67058e-5,6821.38
9.67255e-5,7048.48
9.674530000000002e-5,7314.39
9.676500000000001e-5,7624.0
9.678480000000002e-5,7982.31
9.68025e-5,8350.51
9.68183e-5,8717.1
9.683410000000001e-5,9123.039999999999
9.684990000000002e-5,9570.380000000001
9.686570000000001e-5,10060.9
9.68815e-5,10595.9
9.689730000000001e-5,11176.3
9.6921e-5,12132.6
9.694150000000001e-5,13043.400000000001
9.6962e-5,14027.0
9.69826e-5,15077.9
9.701100000000001e-5,16628.3
9.705050000000001e-5,18912.2
9.711360000000002e-5,22620.0
9.714460000000002e-5,24314.300000000003
9.71692e-5,25538.6
9.71913e-5,26511.2
9.721660000000001e-5,27444.600000000002
9.723560000000001e-5,28001.9
9.725450000000001e-5,28424.7
9.72735e-5,28704.7
9.729690000000001e-5,28845.5
9.729950000000001e-5,28847.0
9.731900000000001e-5,28767.2
9.733790000000002e-5,28538.100000000002
9.735680000000001e-5,28164.1
9.73758e-5,27652.7
9.74011e-5,26774.6
9.742000000000001e-5,25985.2
9.74377e-5,25161.4
9.746420000000001e-5,23797.100000000002
9.74958e-5,22028.500000000004
9.75748e-5,17399.4
9.76095e-5,15468.4
9.7638e-5,14003.8
9.76569e-5,13097.7
9.767410000000001e-5,12329.6
9.76972e-5,11379.8
9.772030000000001e-5,10527.1
9.773570000000001e-5,10012.300000000001
9.77511e-5,9539.34
9.77665e-5,9107.02
9.778190000000001e-5,8713.699999999999
9.77994e-5,8310.11
9.781920000000001e-5,7910.370000000001
9.78389e-5,7562.9
9.78587e-5,7262.79
9.78784e-5,7005.110000000001
9.78981e-5,6785.05
9.791790000000001e-5,6598.02
9.793760000000001e-5,6439.75
9.796720000000002e-5,6247.71
9.799680000000002e-5,6099.820000000001
9.802650000000001e-5,5986.25
9.806590000000001e-5,5874.62
9.81054e-5,5795.4
9.81725e-5,5707.42
9.82397e-5,5653.08
9.83739e-5,5589.96
9.861080000000001e-5,5534.0199999999995
9.90056e-5,5491.84
9.99531e-5,5456.88
0.000102928,5431.07
0.000164529,5215.89
0.00019844800000000002,5063.58
0.000223068,4921.25
0.00024194300000000002,4781.780000000001
0.00025753,4636.15
0.00027000000000000006,4490.42
0.000280911,4332.07
0.000288704,4195.42
0.000296498,4031.34
0.000302732,3874.48
0.000307408,3737.65
0.00031208500000000003,3580.2200000000003
0.000316761,3397.21
0.00032087900000000004,3209.67
0.00032388,3053.9100000000003
0.000326381,2909.75
0.00032888300000000003,2750.04
0.000331384,2572.7000000000003
0.000333885,2375.14
0.000335552,2230.82
0.00033722,2075.4100000000003
0.000338888,1908.1699999999998
0.000340555,1728.5600000000002
0.000342223,1536.5800000000002
0.00034389,1333.23
0.00034632900000000004,1022.47
0.000347642,856.233
0.000348392,765.5129999999999
0.000348955,701.347
0.000349518,642.075
0.00034989300000000005,606.154
0.000350268,573.865
0.00035055000000000004,552.529
0.000350831,534.115
0.000351112,519.075
0.000351394,507.925
0.000351597,502.62399999999997
0.000351834,499.72700000000003
0.000351902,499.60699999999997
0.00035204,500.41200000000003
0.000352248,504.483
0.00035241,510.21400000000006
0.000352582,519.02
0.00035277500000000005,532.5210000000001
0.000352966,550.031
0.000353145,570.5949999999999
0.00035332200000000004,595.253
0.000353499,624.616
0.00035360299999999997,644.266
0.00035374900000000004,674.963
0.000353895,709.644
0.000354051,751.588
0.000354208,798.899
0.000354364,852.0490000000001
0.00035452,911.5500000000001
0.000354677,977.9680000000001
0.00035482300000000004,1046.74
0.000354963,1119.79
0.000355104,1200.0
0.000355245,1287.96
0.00035538500000000005,1384.31
0.00035552600000000005,1489.77
0.000355667,1605.1200000000001
0.000355807,1731.22
0.00035594800000000003,1869.01
0.000356089,2019.5400000000002
0.000356229,2183.95
0.00035637,2363.51
0.000356511,2559.6299999999997
0.00035665200000000005,2773.88
0.00035679200000000004,3007.97
0.00035693300000000003,3263.8500000000004
0.000357074,3543.66
0.000357214,3849.8199999999997
0.000357355,4185.0199999999995
0.000357496,4552.28
0.00035763600000000004,4955.02
0.000357772,5379.96
0.00035789700000000003,5807.91
0.00035802200000000005,6273.65
0.000358147,6781.0
0.00035827200000000003,7334.29
0.000358397,7938.360000000001
0.000358522,8598.710000000001
0.000358647,9321.54
0.00035877200000000004,10113.9
0.00035889700000000006,10983.8
0.00035902300000000004,11940.4
0.00035914300000000003,12957.5
0.00035926200000000006,14056.1
0.00035938100000000003,15264.800000000001
0.0003595,16597.5
0.00035961900000000004,18069.8
0.000359735,19670.1
0.000359848,21376.6
0.00035996100000000006,23264.999999999996
0.000360036,24636.999999999996
0.000360111,26109.0
0.000360186,27690.3
0.000360261,29391.2
0.00036033200000000005,31117.9
0.000360432,33776.2
0.000360532,36724.9
0.00036059800000000006,38872.1
0.00036066500000000003,41180.8
0.000360732,43666.7
0.000360798,46347.50000000001
0.000360861,49055.5
0.000360949,53200.1
0.000361007,56218.0
0.00036106500000000004,59463.0
0.000361124,62957.799999999996
0.000361182,66727.9
0.00036124000000000003,70802.4
0.000361299,75214.1
0.000361374,81443.4
0.00036142400000000006,85986.4
0.000361474,90878.70000000001
0.000361524,96156.6
0.00036157400000000003,101862.00000000001
0.000361624,108042.0
0.00036167400000000003,114750.0
0.00036172200000000003,121733.0
0.000361768,128977.99999999999
0.000361814,136840.0
0.000361859,145392.0
0.00036190500000000004,154717.0
0.000361951,164909.0
0.000361997,176079.0
0.000362043,188353.0
0.000362086,201105.0
0.000362127,214270.0
0.000362168,228688.0
0.000362209,244510.0
0.00036225,261909.0
0.00036229000000000003,281077.0
0.000362331,302232.0
0.000362372,325617.0
0.000362405,346272.0
0.000362443,371978.0
0.00036248000000000004,400236.00000000006
0.000362518,431311.99999999994
0.00036255500000000003,465492.0
0.00036259300000000003,503078.0
0.000362626,539606.0
0.00036265900000000004,579309.0
0.00036269300000000003,622426.0
0.000362726,669195.0
0.00036275900000000004,719860.0
0.00036279300000000003,774650.0
0.000362826,833794.0
0.000362859,897495.9999999999
0.00036289300000000004,965950.0
0.000362926,1.03931e6
0.00036296,1.11771e6
0.000362993,1.20122e6
0.000363026,1.28988e6
0.000363076,1.43246e6
0.000363126,1.58618e6
0.000363176,1.75032e6
0.000363243,1.98331e6
0.000363326,2.29139e6
0.00036346,2.79613e6
0.00036352600000000003,3.03814e6
0.00036359300000000005,3.262e6
0.000363643,3.4128e6
0.000363685,3.52445e6
0.000363735,3.63887e6
0.000363777,3.71603e6
0.000363827,3.78484e6
0.000363877,3.82613e6
0.00036392600000000004,3.83899e6
0.00036397700000000003,3.82287e6
0.000364024,3.78204e6
0.000364073,3.71535e6
0.000364121,3.62531e6
0.000364169,3.51419e6
0.000364233,3.33872e6
0.000364294,3.15156e6
0.00036437700000000004,2.8663e6
0.000364567,2.18397e6
0.00036462,2.0006599999999998e6
0.000364674,1.82577e6
0.000364727,1.661e6
0.00036477,1.53538e6
0.00036482,1.40017e6
0.00036487,1.27565e6
0.00036492100000000004,1.16179e6
0.000364954,1.09168e6
0.000364987,1.02607e6
0.000365021,964811.0000000001
0.000365059,899503.0
0.00036509700000000005,839413.0
0.000365136,784224.0
0.00036517400000000006,733609.0
0.000365212,687236.0
0.00036525100000000003,644782.0
0.00036528900000000003,605927.0
0.00036532700000000003,570368.0
0.00036536900000000005,535451.0
0.00036541000000000004,503681.0
0.00036545100000000004,474742.0
0.00036549200000000003,448350.0
0.000365534,424242.99999999994
0.000365575,402186.0
0.00036563,375602.0
0.00036568500000000003,351847.0
0.00036574000000000003,330539.0
0.000365801,309433.0
0.000365834,298833.0
0.000365901,279429.0
0.000365968,262119.0
0.00036603400000000005,246600.99999999997
0.000366101,232622.99999999997
0.00036616800000000005,219978.0
0.000366234,208493.0
0.00036630100000000003,198021.0
0.000366385,186173.0
0.00036646800000000006,175520.0
0.000366551,165898.0
0.00036663500000000003,157171.0
0.00036671800000000004,149228.0
0.00036680100000000004,141971.0
0.000366885,135321.0
0.000366968,129207.99999999999
0.000367068,122499.0
0.000367168,116392.99999999999
0.000367268,110816.0
0.000367418,103308.0
0.000367569,96680.3
0.000367719,90793.09999999999
0.00036785,86161.20000000001
0.000368012,81002.9
0.00036817500000000005,76393.3
0.000368338,72254.0
0.0003685,68520.59999999999
0.00036866300000000003,65139.2
0.00036882500000000003,62064.5
0.000368988,59258.8
0.00036917300000000004,56345.0
0.000369382,53389.8
0.00036959,50726.8
0.00036979900000000003,48317.0
0.00037000700000000005,46127.799999999996
0.00037032,43198.5
0.000370633,40629.200000000004
0.000370945,38360.1
0.000371258,36343.9
0.00037157,34542.299999999996
0.00037188300000000004,32924.3
0.00037219600000000004,31464.6
0.00037258100000000003,29851.7
0.000372936,28526.3
0.00037329,27328.600000000002
0.00037382200000000005,25734.0
0.000374353,24343.0
0.00037488500000000004,23121.2
0.000375447,21980.7
0.00037607300000000004,20867.2
0.000376698,19888.3
0.000377323,19021.600000000002
0.00037774000000000005,18497.399999999998
0.000378574,17557.8
0.000379408,16740.8
0.00038024200000000004,16024.199999999999
0.00038107500000000003,15391.2
0.00038190900000000005,14828.300000000001
0.00038316,14093.800000000001
0.00038441,13463.199999999999
0.000385661,12917.400000000001
0.00038691200000000005,12440.800000000001
0.000388579,11892.400000000001
0.000390246,11423.8
0.00039191400000000004,11019.000000000002
0.000393582,10666.0
0.00039608300000000004,10213.9
0.000398584,9834.99
0.000401586,9454.81
0.000404587,9136.189999999999
0.000406588,8951.02
0.00041059,8632.94
0.00041459200000000003,8369.42
0.000419595,8097.35
0.00042526400000000007,7846.54
0.000431267,7629.7699999999995
0.00043760399999999997,7441.360000000001
0.00044527400000000006,7254.400000000001
0.000456079,7045.51
0.000468802,6856.25
0.00048426200000000006,6681.2
0.0004994320000000001,6554.67
0.000501989,6545.68
0.0005035370000000001,6557.99
0.0005042099999999999,6583.34
0.000504609,6625.88
0.0005047990000000001,6676.929999999999
0.000504925,6743.2699999999995
0.00050502,6825.79
0.0005050930000000001,6920.67
0.0005051560000000001,7032.110000000001
0.0005052190000000001,7180.34
0.000505282,7375.82
0.000505346,7630.9
0.0005053880000000001,7841.01
0.00050543,8088.509999999999
0.000505472,8378.24
0.000505514,8715.25
0.000505556,9104.62
0.000505598,9551.38
0.00050564,10060.3
0.000505682,10635.699999999999
0.000505724,11281.300000000001
0.000505762,11924.9
0.0005058,12629.0
0.000505825,13132.4
0.000505876,14220.3
0.0005059260000000001,15413.300000000001
0.0005059680000000001,16482.8
0.0005060310000000001,18200.9
0.000506114,20623.7
0.00050628,25611.4
0.000506357,27773.500000000004
0.0005064070000000001,29057.9
0.0005064580000000001,30198.9
0.0005064910000000001,30865.300000000003
0.0005065450000000001,31747.399999999998
0.000506592,32328.7
0.000506639,32704.100000000002
0.000506688,32871.299999999996
0.0005067,32877.200000000004
0.000506746,32773.0
0.000506786,32514.8
0.0005068290000000001,32081.2
0.000506866,31562.899999999998
0.000506922,30582.5
0.000506973,29503.1
0.000507023,28269.199999999997
0.000507094,26341.5
0.0005071860000000001,23601.2
0.000507318,19621.2
0.000507381,17815.0
0.000507444,16125.400000000001
0.000507487,15077.5
0.000507529,14099.3
0.0005075710000000001,13194.300000000001
0.0005076120000000001,12384.2
0.000507652,11663.5
0.000507692,11009.800000000001
0.0005077320000000001,10421.0
0.0005077720000000001,9894.349999999999
0.0005078109999999999,9426.5
0.000507851,9013.63
0.000507891,8651.58
0.000507932,8328.35
0.000507974,8042.820000000001
0.000508017,7798.9
0.000508059,7591.8
0.0005081220000000001,7340.25
0.0005081850000000001,7147.31
0.0005082480000000001,7000.79
0.000508324,6871.900000000001
0.000508399,6780.83
0.0005085000000000001,6699.72
0.0005086520000000001,6629.88
0.000508904,6575.77
0.000509325,6537.25
0.00051057,6492.9800000000005
0.0005149110000000001,6444.18
0.0005285750000000001,6367.099999999999
0.0005297990000000001,6364.81
0.0005316440000000001,6373.2699999999995
0.0005324160000000001,6392.64
0.000532902,6428.15
0.000533129,6473.639999999999
0.00053328,6539.0
0.000533397,6631.8099999999995
0.000533481,6736.22
0.000533544,6844.76
0.0005336070000000001,6987.56
0.0005336700000000001,7173.72
0.000533733,7413.820000000001
0.000533775,7609.72
0.000533817,7838.72
0.000533859,8104.82
0.000533901,8412.119999999999
0.000533942,8764.69
0.000533984,9166.53
0.000534026,9621.35
0.000534074,10200.6
0.000534121,10855.0
0.000534168,11587.300000000001
0.000534215,12398.9
0.0005342620000000001,13289.2
0.00053432,14480.0
0.000534383,15897.1
0.000534446,17417.7
0.000534551,20101.6
0.000534676,23320.5
0.0005347380000000001,24818.899999999998
0.000534805,26288.0
0.0005348550000000001,27251.3
0.000534904,28044.8
0.000534953,28695.5
0.0005349980000000001,29129.6
0.000535052,29449.7
0.0005351,29541.7
0.0005351479999999999,29445.399999999998
0.000535199,29142.3
0.000535244,28717.399999999998
0.000535291,28102.9
0.000535338,27350.9
0.000535389,26403.2
0.000535456,24950.7
0.0005355410000000001,22875.100000000002
0.0005357370000000001,17816.399999999998
0.0005358,16274.699999999999
0.000535863,14830.000000000002
0.0005359200000000001,13630.9
0.000535964,12771.9
0.000536008,11980.4
0.0005360520000000001,11257.8
0.000536096,10603.6
0.0005361399999999999,10016.6
0.000536182,9517.36
0.000536224,9073.710000000001
0.000536266,8682.16
0.000536308,8338.93
0.00053635,8040.03
0.000536392,7781.38
0.000536434,7558.92
0.0005364969999999999,7284.4800000000005
0.000536559,7070.08
0.000536622,6904.4400000000005
0.0005366850000000001,6777.68
0.000536769,6654.89
0.000536882,6547.889999999999
0.0005370250000000001,6471.549999999999
0.000537239,6416.26
0.000537717,6370.2
0.000538858,6332.639999999999
0.000542887,6293.55
0.00056865,6183.89
0.0006128250000000001,6051.69
0.0006733500000000001,5925.32
0.000757644,5804.31
0.0007770310000000001,5786.21
0.000781421,5799.2
0.000782313,5815.95
0.000782827,5843.67
0.000783085,5883.18
0.0007832560000000001,5940.36
0.000783398,6026.4
0.000783509,6135.76
0.0007835930000000001,6252.91
0.0007836760000000001,6410.32
0.0007837600000000001,6618.98
0.000783831,6844.820000000001
0.000783895,7096.69
0.0007839590000000001,7399.58
0.000784024,7760.0199999999995
0.0007840880000000001,8184.19
0.0007841520000000001,8677.71
0.000784217,9245.18
0.0007842810000000001,9889.74
0.000784345,10612.699999999999
0.00078441,11412.9
0.0007844740000000001,12286.699999999999
0.000784538,13227.3
0.000784624,14567.699999999999
0.000784891,18971.7
0.000784989,20475.699999999997
0.000785064,21484.100000000002
0.000785132,22278.5
0.000785201,22919.800000000003
0.000785265,23360.3
0.000785331,23645.7
0.0007853970000000001,23744.5
0.0007854,23744.6
0.0007854590000000001,23668.300000000003
0.000785518,23444.699999999997
0.0007855760000000001,23089.5
0.000785633,22607.499999999996
0.0007857020000000001,21884.0
0.0007857610000000001,21146.3
0.000785836,20093.5
0.000785946,18355.7
0.0007861760000000001,14550.300000000001
0.000786262,13211.699999999999
0.0007863260000000001,12272.6
0.0007863900000000001,11400.2
