E(MeV),xs(mb)
1.0e-11,65116.1
1.03223e-11,64095.3
1.06549e-11,63091.2
1.0998399999999998e-11,62102.5
1.13527e-11,61129.8
1.1718599999999999e-11,60172.100000000006
1.2096199999999998e-11,59230.0
1.24861e-11,58302.3
1.2888399999999999e-11,57389.700000000004
1.3303799999999998e-11,56491.100000000006
1.37325e-11,55607.100000000006
1.41751e-11,54736.799999999996
1.4631799999999997e-11,53880.5
1.51034e-11,53037.5
1.5590099999999998e-11,52208.2
1.6092599999999998e-11,51391.600000000006
1.66111e-11,50588.3
1.71465e-11,49797.399999999994
1.7699e-11,49019.3
1.8269399999999998e-11,48253.3
1.88581e-11,47499.700000000004
1.94659e-11,46757.799999999996
2.00931e-11,46027.8
2.0740699999999998e-11,45309.2
2.1408999999999998e-11,44602.3
2.2099099999999997e-11,43906.299999999996
2.28111e-11,43221.600000000006
2.3546399999999998e-11,42547.49999999999
2.4305099999999997e-11,41884.4
2.50884e-11,41231.600000000006
2.5896799999999997e-11,40589.3
2.67315e-11,39957.1
2.75928e-11,39335.1
2.8482199999999998e-11,38722.8
2.93999e-11,38120.4
3.0347499999999995e-11,37527.5
3.13253e-11,36944.1
3.2335e-11,36369.9
3.33769e-11,35805.0
3.44526e-11,35248.9
3.55627e-11,34701.9
3.67089e-11,34163.4
3.7891799999999997e-11,33633.700000000004
3.9113e-11,33112.3
4.0373400000000003e-11,32599.300000000003
4.1674599999999996e-11,32094.399999999998
4.3017399999999996e-11,31597.7
4.440389999999999e-11,31108.899999999998
4.58347e-11,30627.9
4.7311899999999994e-11,30154.6
4.883639999999999e-11,29689.0
5.0410399999999995e-11,29230.7
5.20348e-11,28779.8
5.37119e-11,28336.100000000002
5.54426e-11,27899.699999999997
5.7229499999999995e-11,27470.1
5.907359999999999e-11,27047.6
6.09775e-11,26631.7
6.29424e-11,26222.699999999997
6.497099999999999e-11,25820.1
6.70645e-11,25424.1
6.9226e-11,25034.5
7.145659999999999e-11,24651.2
7.37596e-11,24274.0
7.61364e-11,23903.0
7.85902e-11,23537.9
8.11227e-11,23178.800000000003
8.37372e-11,22825.5
8.643549999999999e-11,22477.999999999996
8.922119999999998e-11,22136.100000000002
9.209619999999999e-11,21799.8
9.506439999999999e-11,21468.9
9.81277e-11,21143.5
1.01291e-10,20823.3
1.04554e-10,20508.4
1.07924e-10,20198.6
1.11402e-10,19894.0
1.1499200000000001e-10,19594.2
1.1869700000000001e-10,19299.5
1.22523e-10,19009.6
1.26471e-10,18724.5
1.30547e-10,18444.0
1.34754e-10,18168.2
1.3909700000000002e-10,17896.9
1.43579e-10,17630.2
1.48207e-10,17367.9
1.52982e-10,17109.9
1.57913e-10,16856.2
1.6300100000000001e-10,16606.8
1.68254e-10,16361.5
1.73676e-10,16120.4
1.79274e-10,15883.199999999999
1.8505000000000002e-10,15650.1
1.91014e-10,15420.9
1.97169e-10,15195.6
2.03524e-10,14974.0
2.1008200000000003e-10,14756.199999999999
2.16853e-10,14542.1
2.2384e-10,14331.7
2.31055e-10,14124.8
2.385e-10,13921.5
2.46187e-10,13721.699999999999
2.5412e-10,13525.3
2.6231e-10,13332.3
2.70762e-10,13142.6
2.80079e-10,12943.9
2.8971700000000003e-10,12748.900000000001
2.99687e-10,12557.5
3.09999e-10,12369.6
3.20667e-10,12185.3
3.31701e-10,12004.4
3.43115e-10,11827.0
3.54922e-10,11652.9
3.67136e-10,11482.1
3.79769e-10,11314.5
3.9283800000000004e-10,11150.1
4.06356e-10,10988.9
4.20339e-10,10830.800000000001
4.3480299999999996e-10,10675.8
4.4976500000000005e-10,10523.800000000001
4.6524200000000006e-10,10374.699999999999
4.81252e-10,10228.6
4.97812e-10,10085.3
5.14942e-10,9944.85
5.32662e-10,9807.21
5.50992e-10,9672.31
5.69952e-10,9540.12
5.89565e-10,9410.589999999998
6.09852e-10,9283.69
6.308379999999999e-10,9159.380000000001
6.525460000000001e-10,9037.61
6.75001e-10,8918.35
6.982280000000001e-10,8801.57
7.22255e-10,8687.22
7.47109e-10,8575.26
7.74456e-10,8458.89
8.027990000000002e-10,8345.16
8.32185e-10,8233.99
8.62641e-10,8125.38
8.942170000000001e-10,8019.25
9.26943e-10,7915.59
9.60873e-10,7814.339999999999
9.96039e-10,7715.4800000000005
1.0325000000000001e-9,7618.95
1.07028e-9,7524.740000000001
1.10946e-9,7432.78
1.15006e-9,7343.06
1.1921600000000002e-9,7255.5199999999995
1.23579e-9,7170.14
1.28103e-9,7086.87
1.33072e-9,7000.9800000000005
1.38235e-9,6917.379999999999
1.43598e-9,6836.04
1.49169e-9,6756.9
1.5495600000000002e-9,6679.929999999999
1.60967e-9,6605.1
1.6721200000000002e-9,6532.35
1.7369900000000002e-9,6461.65
1.8081900000000001e-9,6389.21
1.88232e-9,6318.95
1.9594800000000004e-9,6250.84
2.0398100000000002e-9,6184.84
2.12342e-9,6120.89
2.21048e-9,6058.96
2.30109e-9,5998.99
2.4004900000000003e-9,5937.95
2.50418e-9,5878.99
2.61236e-9,5822.05
2.7252e-9,5767.1
2.84895e-9,5711.47
2.9783e-9,5657.91
3.11354e-9,5606.36
3.2549100000000003e-9,5556.77
3.4099e-9,5506.85
3.57227e-9,5458.95
3.74238e-9,5413.0
3.9288900000000005e-9,5366.990000000001
4.12469e-9,5322.9800000000005
4.330250000000001e-9,5280.88
4.55568e-9,5238.9400000000005
4.7928400000000006e-9,5198.9400000000005
5.05301e-9,5159.27
5.3273300000000005e-9,5121.52
5.62841e-9,5084.25
5.94651e-9,5048.89
6.2958700000000005e-9,5014.11
6.679890000000001e-9,4980.0199999999995
7.08732e-9,4947.849999999999
7.535540000000001e-9,4916.44
8.02905e-9,4885.88
8.57297e-9,4856.25
9.17314e-9,4827.61
9.83612e-9,4800.0199999999995
1.05693e-8,4773.51
1.13812e-8,4748.12
1.2281400000000001e-8,4723.87
1.33089e-8,4700.160000000001
1.4453e-8,4677.6900000000005
1.57619e-8,4655.910000000001
1.72623e-8,4634.92
1.89855e-8,4614.79
2.09693e-8,4595.54
2.32585e-8,4577.200000000001
2.52522e-8,4563.76
2.5299999999999998e-8,4563.46
2.83603e-8,4546.2699999999995
3.1993e-8,4529.77
3.63208e-8,4514.0
4.1496199999999994e-8,4499.06
4.7710999999999996e-8,4485.0
5.53224e-8,4471.71
6.482999999999999e-8,4459.08
7.6779e-8,4447.2
9.209120000000001e-8,4435.97
1.12104e-7,4425.33
1.38795e-7,4415.219999999999
1.75142e-7,4405.599999999999
2.24777e-7,4396.55
2.95893e-7,4387.74
4.03763e-7,4378.92
5.72337e-7,4370.08
8.39204e-7,4361.29
1.2594799999999998e-6,4352.74
4.667500000000001e-6,4327.42
1.85514e-5,4302.71
7.32213e-5,4278.39
0.00028699,4254.0
0.00116492,4229.57
0.00460154,4205.339999999999
0.0214512,4173.849999999999
0.06882640000000001,4146.84
0.10141100000000002,4134.2699999999995
0.217538,3848.09
0.31953000000000004,3623.12
0.423055,3416.9900000000002
0.510631,3258.24
0.8056430000000001,2800.49
0.8500000000000001,2744.65
0.8988300000000001,2803.74
0.9,2817.85
0.9071199999999999,2985.85
0.91722,4066.1800000000003
0.9206200000000001,4788.46
0.9223300000000001,4965.14
0.9256970000000001,4619.97
0.9266400000000001,4458.77
0.93095,3699.36
0.944084,2930.08
0.9500000000000001,2829.24
0.9750000000000001,2670.39
1.0,2607.92
1.075,2491.8999999999996
1.08,2484.33
1.09,2482.22
1.09383,2784.78
1.0939,2803.1600000000003
1.09394,2819.1000000000004
1.09408,2908.35
1.09443,3149.2200000000003
1.0945,3212.27
1.09456,3286.9
1.09494,3815.25
1.095,3890.34
1.09508,3958.32
1.09549,4248.71
1.09554,4278.22
1.09558,4284.5599999999995
1.09563,4264.8099999999995
1.0957,4197.8099999999995
1.09608,3731.62
1.09615,3658.4300000000003
1.09663,3207.52
1.0967,3156.64
1.09678,3120.64
1.09798,2795.1000000000004
1.0984,2685.1
1.0992,2630.75
1.1,2582.92
1.15,2421.35
1.25,2317.8999999999996
1.3787,2204.7799999999997
1.48083,2128.13
1.525,2100.63
1.55,2111.25
1.5586,2279.0499999999997
1.56029,2474.8199999999997
1.5604,2492.85
1.56113,2701.38
1.56321,3313.5099999999998
1.5633,3325.44
1.56339,3314.41
1.56517,2804.77
1.56535,2771.69
1.56829,2330.45
1.569,2227.7200000000003
1.59114,2104.25
1.6,2056.64
1.66164,2022.82
1.72398,1998.82
1.77469,1986.1100000000001
1.8,1981.5100000000002
1.85,1982.71
1.875,1991.9199999999998
1.89,2004.94
1.91,2047.8999999999999
1.92,2099.2799999999997
1.93,2207.77
1.9405,2472.8599999999997
1.9431,2575.19
1.947,2739.41
1.9496,2825.61
1.9523,2857.83
1.95495,2811.55
1.96,2567.05
1.965,2301.56
1.97,2106.2
1.975,1972.04
1.98,1873.92
1.985,1793.95
1.995,1648.1699999999998
2.0,1571.05
2.005,1486.85
2.01,1395.1599999999999
2.02,1201.28
2.025,1116.3799999999999
2.03,1058.12
2.0334,1041.0600000000002
2.035,1040.52
2.037,1046.9299999999998
2.0395,1065.95
2.04,1071.06
2.045,1145.2
2.05,1249.19
2.055,1366.32
2.1,2047.36
2.15,2300.54
2.25,2641.73
2.3,2858.64
2.35,3273.72
2.375,3631.83
2.4,4013.8999999999996
2.41,4110.389999999999
2.42,4144.610000000001
2.42925,4116.65
2.435,4074.32
2.4425,3996.55
2.4625,3741.1
2.475,3577.71
2.5,3322.8300000000004
2.525,3155.8
2.55,3053.87
2.575,2996.45
2.6,2970.54
2.625,2969.1299999999997
2.65,2989.03
2.675,3027.8399999999997
2.7,3028.3799999999997
2.705,2986.7599999999998
2.71,2900.61
2.715,2750.89
2.72,2547.64
2.725,2362.38
2.728,2296.0600000000004
2.7302,2273.54
2.7324,2270.46
2.7346,2282.28
2.7368,2304.22
2.7425,2382.3500000000004
2.75,2486.63
2.755,2545.83
2.76,2596.42
2.77,2677.34
2.795,2835.76
2.8,2876.84
2.81,3020.56
2.815,3177.23
2.8219,3680.24
2.8242,3977.9300000000003
2.825,4095.15
2.83,4701.09
2.8311,4717.08
2.83499,4404.2300000000005
2.84,3853.23
2.845,3520.21
2.85,3341.5699999999997
2.86,3181.79
2.87,3120.24
2.88,3093.98
2.89,3088.13
2.90008,3142.4500000000003
2.905,3299.09
2.91225,4212.65
2.9135,4362.650000000001
2.91575,4284.72
2.91617,4250.759999999999
2.918,4059.31
2.92,3871.0
2.925,3585.83
2.93,3455.11
2.935,3388.43
2.94,3350.92
2.9475,3321.2000000000003
2.96,3298.83
2.98,3285.9500000000003
3.05,3154.5899999999997
3.1,2928.98
3.15,2679.7200000000003
3.2,2458.73
3.25,2269.72
3.32328,2025.5899999999997
3.35,1938.79
3.405,1741.75
3.425,1665.1499999999999
3.4325,1641.05
3.4375,1631.3
3.44,1628.07
3.44315,1628.9199999999998
3.4463,1635.2
3.45,1651.06
3.455,1690.39
3.46,1751.0300000000002
3.47,1903.1899999999998
3.475,1964.49
3.48,2002.1
3.485,2016.4499999999998
3.49,2013.1999999999998
3.4975,1988.6999999999998
3.55,1778.6200000000001
3.6,1717.06
3.7,1948.27
3.725,1932.4399999999998
3.7535,1876.55
3.85,1637.2
3.94,1424.1200000000001
3.9548,1397.76
3.9624,1393.29
3.97027,1404.3300000000002
3.975,1423.9599999999998
3.98,1462.23
3.985,1524.98
3.99,1617.87
3.995,1739.93
4.0,1875.57
4.01,2076.8900000000003
4.0164,2108.66
4.02472,2070.21
4.04,1947.95
4.045,1914.96
4.05,1888.0600000000002
4.056,1863.98
4.0636,1846.97
4.0676,1844.3400000000001
4.07225,1850.33
4.08,1868.9
4.09,1934.57
4.1,2058.74
4.115,2384.94
4.125,2653.96
4.13,2762.67
4.14,2847.8500000000004
4.15,2755.1299999999997
4.165,2501.4500000000003
4.17,2419.3799999999997
4.18,2292.77
4.2,2153.14
4.214,2126.04
4.22265,2133.9199999999996
4.2313,2152.56
4.24,2185.86
4.25,2235.8199999999997
4.275,2371.23
4.2833,2400.65
4.2866,2409.91
4.2952,2418.6200000000003
4.30079,2412.48
4.325,2319.38
4.35,2163.03
4.375,2021.3700000000001
4.4,1917.5
4.45,1810.79
4.5,1796.45
4.55,1837.3200000000002
4.625,1929.79
4.65,1951.78
4.6866,1965.1799999999998
4.7,1963.68
4.73,1946.98
4.75,1924.56
4.775,1875.37
4.7912,2118.96
4.7966,2265.69
4.80607,1981.1499999999999
4.80689,1959.01
4.8175,1902.1999999999998
4.82,1893.75
4.85,1822.7199999999998
4.95,1636.8899999999999
5.0178,1502.65
5.025,1497.29
5.0298,1683.0700000000002
5.05,2472.6
5.0506,2481.47
5.05589,2273.37
5.05706,2217.05
5.06,2069.18
5.075,1729.5700000000002
5.1,1580.1000000000001
5.15,1473.4499999999998
5.2,1410.4099999999999
5.25,1361.01
5.3,1319.31
5.35,1282.8999999999999
5.36,1258.23
5.37,1275.04
5.38,1300.16
5.39,1355.3500000000001
5.4,1475.8400000000001
5.41,1749.43
5.42,1919.27
5.425,1937.29
5.42992,1890.3300000000002
5.44,1620.52
5.45,1445.87
5.46,1430.46
5.49,1643.33
5.5,1714.84
5.55,1922.96
5.6,2090.05
5.625,2198.09
5.65255,2390.0
5.67755,2610.0
5.7,2809.4700000000003
5.75,2774.4399999999996
5.805,2185.0
5.84,1800.57
5.85,1792.19
5.86,1818.08
5.87,1858.0700000000002
5.89,1962.75
5.9,1971.77
5.91,1939.6
5.92,1838.05
5.93,1745.2
5.94,1688.08
5.95,1645.06
6.0,1478.8600000000001
6.05,1190.2299999999998
6.1,1100.0700000000002
6.13,1080.11
6.14969,1104.6100000000001
6.2,1264.84
6.22,1275.15
6.25,1367.95
6.27,1411.8
6.335,1333.14
6.35023,1350.8500000000001
6.4,1528.92
6.425,1582.71
6.45312,1505.31
6.5,1360.12
6.55,1308.02
6.585,1285.1
6.60023,1301.1399999999999
6.65,1539.77
6.655,1544.6
6.69969,1289.79
6.71187,1276.72
6.72,1269.25
6.7455,1349.79
6.7472,1352.32
6.74904,1349.53
6.7493,1342.33
6.75,1303.72
6.75029,1299.8
6.775,1274.94
6.8,1224.9399999999998
6.825,1150.07
6.85,1102.23
6.875,1150.02
6.9,1207.84
6.925,1200.03
6.95,1205.04
7.0,1245.07
7.05,1340.22
7.095,1587.65
7.09969,1587.06
7.125,1470.26
7.15,1457.94
7.19,1398.1
7.205,1401.2
7.255,1422.0
7.26,1423.0700000000002
7.3,1473.98
7.32,1493.76
7.35,1410.11
7.36,1399.1599999999999
7.39984,1454.81
7.445,1599.6699999999998
7.45016,1588.74
7.475,1400.1699999999998
7.5,1275.27
7.53,1252.06
7.5475,1255.5
7.565,1271.9
7.6,1309.08
7.6362,1390.07
7.7,1599.8799999999999
7.72,1629.81
7.74929,1586.06
7.7921,1469.8400000000001
7.8,1429.21
7.85,1335.04
7.9,1270.04
7.95,1232.09
8.0,1263.1399999999999
8.05,1400.37
8.0759,1615.8999999999999
8.08795,1517.01
8.1,1410.42
8.134,1320.51
8.14019,1350.29
8.2,1455.06
8.25,1589.89
8.29,1629.92
8.29937,1628.1200000000001
8.35,1500.1
8.375,1474.99
8.4,1445.0400000000002
8.425,1430.04
8.4375,1430.0
8.45,1430.03
8.5022,1453.46
8.5196,1464.98
8.55,1477.99
8.59,1489.97
8.60125,1487.0
8.65,1448.0900000000001
8.7,1473.0700000000002
8.75,1550.06
8.785,1632.73
8.7925,1624.5
8.8,1622.73
8.83,1499.96
8.85,1405.04
8.8718,1315.39
8.875,1319.84
8.9,1300.0100000000002
8.95,1270.1299999999999
8.979,1304.73
9.0,1250.1899999999998
9.1134,1260.83
9.1512,1266.03
9.2,1295.02
9.3,1384.97
9.4,1438.1
9.5,1631.18
9.55,1849.6999999999998
9.6,1861.78
9.655,1715.3
9.7,1780.03
9.775,1915.8200000000002
9.79844,1901.0
9.80625,1885.6200000000001
9.9,1669.97
9.922,1610.16
10.0,1570.02
10.049999999999999,1560.0400000000002
10.1,1577.0
10.2,1695.0
10.25,1711.0
10.3,1660.0
10.384,1618.0
10.392,1520.0
10.4,1518.0
10.45,1488.0
10.5,1500.0
10.502,1520.0
10.568,1580.0
10.600000000000001,1628.0
10.649999999999999,1680.0
10.700000000000001,1580.0
10.75,1524.0
10.8,1468.0
10.892999999999999,1500.0
10.9,1479.0
10.933,1500.0
11.0,1605.0
11.039000000000001,1655.0
11.100000000000001,1664.0
11.200000000000001,1640.0
11.25,1643.0
11.299999999999999,1646.0
11.399999999999999,1675.0
11.5,1650.0
11.561,1625.0
11.6,1615.0
11.7,1600.0
11.73,1586.0
11.75,1581.0
11.754,1580.0
11.799999999999999,1565.0
11.850000000000001,1560.0
11.86,1565.0
11.899999999999999,1570.0
12.0,1620.0
12.1,1669.0
12.2,1637.0
12.25,1611.0
12.3,1585.0
12.4,1539.0
12.5,1512.0
12.6,1521.0
12.7,1540.0
12.75,1534.5
12.8,1529.0
12.9,1538.0
13.0,1587.0
13.100000000000001,1665.0
13.200000000000001,1711.0
13.25,1705.0
13.3,1699.0
13.4,1668.0
13.5,1660.0
13.600000000000001,1678.0
13.700000000000001,1679.0
13.75,1665.0
13.799999999999999,1651.0
13.865,1632.0
13.899999999999999,1633.0
14.0,1650.0
14.030000000000001,1660.0
14.2279,1686.99
14.25,1690.0
14.451,1673.92
14.5,1670.0
14.605999999999998,1650.0
14.75,1619.0
14.958100000000002,1613.17
15.0,1612.0
15.024,1620.0
15.236,1677.21
15.25,1681.0
15.4651,1670.67
15.5,1669.0
15.649999999999999,1640.0
15.701,1630.0
15.75,1625.0
15.9722,1617.89
16.0,1617.0
16.2257,1663.05
16.25,1668.0
16.4793,1682.67
16.5,1684.0
16.7328,1682.1399999999999
16.75,1682.0
16.9863,1678.22
17.0,1678.0
17.239800000000002,1674.16
17.25,1674.0
17.493399999999998,1678.8700000000001
17.5,1679.0
17.7469,1704.68
17.75,1705.0
18.0,1697.0
18.25,1684.0
18.5,1717.0
18.75,1718.0
19.0,1749.0
19.25,1755.0
19.5,1750.0
19.75,1763.0
20.0,1761.0
