E(MeV),xs(mb)
1.0e-11,62978.4
1.03223e-11,61990.8
1.06549e-11,61019.2
1.0998399999999998e-11,60062.5
1.13527e-11,59121.4
1.1718599999999999e-11,58194.7
1.2096199999999998e-11,57283.0
1.24861e-11,56385.4
1.2888399999999999e-11,55502.3
1.3303799999999998e-11,54632.899999999994
1.37325e-11,53777.4
1.41751e-11,52935.299999999996
1.4631799999999997e-11,52106.700000000004
1.51034e-11,51290.899999999994
1.5590099999999998e-11,50488.4
1.6092599999999998e-11,49698.200000000004
1.66111e-11,48920.8
1.71465e-11,48155.5
1.7699e-11,47402.49999999999
1.8269399999999998e-11,46661.200000000004
1.88581e-11,45931.8
1.94659e-11,45213.799999999996
2.00931e-11,44507.399999999994
2.0740699999999998e-11,43812.0
2.1408999999999998e-11,43127.8
2.2099099999999997e-11,42454.200000000004
2.28111e-11,41791.5
2.3546399999999998e-11,41139.1
2.4305099999999997e-11,40497.3
2.50884e-11,39865.5
2.5896799999999997e-11,39243.8
2.67315e-11,38631.9
2.75928e-11,38029.799999999996
2.8482199999999998e-11,37437.200000000004
2.93999e-11,36854.1
3.0347499999999995e-11,36280.1
3.13253e-11,35715.4
3.2335e-11,35159.6
3.33769e-11,34612.7
3.44526e-11,34074.4
3.55627e-11,33544.8
3.67089e-11,33023.5
3.7891799999999997e-11,32510.6
3.9113e-11,32005.8
4.0373400000000003e-11,31509.100000000002
4.1674599999999996e-11,31020.3
4.3017399999999996e-11,30539.399999999998
4.440389999999999e-11,30066.0
4.58347e-11,29600.300000000003
4.7311899999999994e-11,29142.0
4.883639999999999e-11,28691.0
5.0410399999999995e-11,28247.2
5.20348e-11,27810.600000000002
5.37119e-11,27380.9
5.54426e-11,26958.199999999997
5.7229499999999995e-11,26542.1
5.907359999999999e-11,26132.8
6.09775e-11,25730.0
6.29424e-11,25333.800000000003
6.497099999999999e-11,24943.8
6.70645e-11,24560.2
6.9226e-11,24182.7
7.145659999999999e-11,23811.300000000003
7.37596e-11,23445.9
7.61364e-11,23086.4
7.85902e-11,22732.600000000002
8.11227e-11,22384.7
8.37372e-11,22042.199999999997
8.643549999999999e-11,21705.399999999998
8.922119999999998e-11,21374.0
9.209619999999999e-11,21048.0
9.506439999999999e-11,20727.3
9.81277e-11,20411.800000000003
1.01291e-10,20101.300000000003
1.04554e-10,19796.0
1.07924e-10,19495.6
1.11402e-10,19200.2
1.1499200000000001e-10,18909.5
1.1869700000000001e-10,18623.6
1.22523e-10,18342.3
1.26471e-10,18065.8
1.30547e-10,17793.600000000002
1.34754e-10,17526.0
1.3909700000000002e-10,17262.8
1.43579e-10,17003.9
1.48207e-10,16749.3
1.52982e-10,16498.9
1.57913e-10,16252.5
1.6300100000000001e-10,16010.4
1.68254e-10,15772.1
1.73676e-10,15537.9
1.79274e-10,15307.599999999999
1.8505000000000002e-10,15081.1
1.91014e-10,14858.3
1.97169e-10,14639.3
2.03524e-10,14423.999999999998
2.1008200000000003e-10,14212.3
2.16853e-10,14004.0
2.2384e-10,13799.4
2.31055e-10,13598.1
2.385e-10,13400.300000000001
2.46187e-10,13205.800000000001
2.5412e-10,13014.699999999999
2.6231e-10,12826.699999999999
2.70762e-10,12642.0
2.7948900000000003e-10,12460.500000000002
2.88494e-10,12282.0
2.9779300000000004e-10,12106.6
3.07388e-10,11934.199999999999
3.17966e-10,11753.6
3.2890700000000003e-10,11576.3
3.4022500000000003e-10,11402.300000000001
3.51933e-10,11231.599999999999
3.64043e-10,11064.0
3.76571e-10,10899.5
3.8952900000000004e-10,10738.099999999999
4.02933e-10,10579.7
4.1679800000000003e-10,10424.3
4.3114100000000003e-10,10271.8
4.45977e-10,10122.199999999999
4.6132400000000005e-10,9975.45
4.77198e-10,9831.49
4.93619e-10,9690.279999999999
5.10605e-10,9551.78
5.28176e-10,9415.94
5.463510000000001e-10,9282.730000000001
5.65152e-10,9152.1
5.84599e-10,9024.01
6.04716e-10,8898.42
6.255250000000001e-10,8775.29
6.470500000000001e-10,8654.58
6.69316e-10,8536.26
6.92348e-10,8420.28
7.16172e-10,8306.609999999999
7.40816e-10,8195.21
7.663090000000001e-10,8086.05
7.92678e-10,7979.08
8.199550000000001e-10,7874.28
8.48171e-10,7771.61
8.792170000000001e-10,7664.799999999999
9.113950000000001e-10,7560.330000000001
9.44755e-10,7458.14
9.79331e-10,7358.19
1.01518e-9,7260.44
1.05233e-9,7164.86
1.0908500000000002e-9,7071.4
1.1307700000000002e-9,6980.04
1.1721600000000002e-9,6890.71
1.2150600000000001e-9,6803.410000000001
1.2595400000000002e-9,6718.07
1.30564e-9,6634.68
1.35343e-9,6553.19
1.40296e-9,6473.57
1.4543100000000001e-9,6395.780000000001
1.51073e-9,6315.37
1.56934e-9,6236.94
1.6302200000000002e-9,6160.4400000000005
1.6934700000000002e-9,6085.83
1.75917e-9,6013.07
1.82741e-9,5942.13
1.8983100000000002e-9,5872.969999999999
1.9719500000000004e-9,5805.54
2.04845e-9,5739.81
2.1324200000000004e-9,5672.240000000001
2.21984e-9,5606.46
2.31084e-9,5542.45
2.4055800000000003e-9,5480.15
2.50418e-9,5419.55
2.6068500000000004e-9,5360.56
2.7137e-9,5303.19
2.8309300000000003e-9,5244.46
2.9532200000000003e-9,5187.41
3.08079e-9,5131.99
3.21387e-9,5078.16
3.3527000000000002e-9,5025.87
3.50494e-9,4972.5599999999995
3.66408e-9,4920.87
3.8304600000000004e-9,4870.71
4.00437e-9,4822.07
4.1862e-9,4774.879999999999
4.38554e-9,4726.96
4.59438e-9,4680.54
4.8131500000000005e-9,4635.570000000001
5.0423500000000005e-9,4592.0
5.2936300000000005e-9,4547.900000000001
5.557450000000001e-9,4505.219999999999
5.8344e-9,4463.92
6.138130000000001e-9,4422.25
6.4576700000000005e-9,4381.96
6.7938500000000005e-9,4343.03
7.162670000000001e-9,4303.84
7.55148e-9,4266.0
7.96143e-9,4229.46
8.411390000000002e-9,4192.79
8.886770000000002e-9,4157.41
9.38902e-9,4123.280000000001
9.94064e-9,4089.1000000000004
1.05247e-8,4056.1499999999996
1.11667e-8,4023.25
1.18478e-8,3991.5600000000004
1.2597e-8,3959.99
1.33937e-8,3929.6099999999997
1.42708e-8,3899.41
1.52054e-8,3870.38
1.62355e-8,3841.5699999999997
1.73354e-8,3813.91
1.8549e-8,3786.52
1.98476e-8,3760.2400000000002
2.1282e-8,3734.2599999999998
2.2868300000000003e-8,3708.6299999999997
2.4573e-8,3684.0899999999997
2.52522e-8,3675.0600000000004
2.5299999999999998e-8,3674.44
2.72435e-8,3650.69
2.9398300000000003e-8,3627.3300000000004
3.17907e-8,3604.4100000000003
3.44505e-8,3581.96
3.7333e-8,3560.54
4.0542299999999996e-8,3539.58
4.4120600000000007e-8,3519.12
4.8116199999999996e-8,3499.16
5.2584900000000005e-8,3479.73
5.7590399999999997e-8,3460.84
6.32057e-8,3442.5099999999998
6.95153e-8,3424.74
7.6779e-8,3407.1699999999996
8.498100000000001e-8,3390.22
9.425820000000001e-8,3373.89
1.0477e-7,3358.17
1.16947e-7,3342.7799999999997
1.31092e-7,3327.76
1.4726099999999998e-7,3313.4
1.6612299999999998e-7,3299.4500000000003
1.8819699999999997e-7,3285.9500000000003
2.14106e-7,3272.92
2.4461599999999997e-7,3260.3900000000003
2.80656e-7,3248.38
3.24057e-7,3236.7200000000003
3.75754e-7,3225.61
4.38473e-7,3214.93
5.149149999999999e-7,3204.71
6.09819e-7,3194.8500000000004
7.26811e-7,3185.5
8.736079999999999e-7,3176.6
1.0571799999999999e-6,3168.24
1.52174e-6,3154.4300000000003
3.24259e-6,3133.04
8.347799999999998e-6,3116.43
2.8843100000000005e-5,3107.33
3.26293e-5,3107.22
0.000146092,3128.1
0.000304819,3182.84
0.000444957,3253.69
0.000568586,3338.52
0.0006821570000000001,3440.8599999999997
0.000768405,3539.29
0.000835787,3629.48
0.0008964320000000001,3722.77
0.0009614760000000001,3837.91
0.00103852,3998.3900000000003
0.00110602,4165.41
0.0011661900000000001,4338.339999999999
0.00122483,4534.07
0.0012809100000000001,4747.29
0.0013266,4946.96
0.00137348,5176.9400000000005
0.00141073,5380.33
0.0014479900000000001,5604.82
0.0014852399999999999,5853.049999999999
0.0015119,6046.46
0.00154889,6340.59
0.00157478,6562.52
0.00161151,6911.679999999999
0.00164825,7300.79
0.00168329,7714.7300000000005
0.001719,8185.330000000001
0.0017584500000000002,8769.18
0.001786,9225.6
0.00181355,9722.77
0.0018411,10272.300000000001
0.00186865,10872.599999999999
0.0018962000000000002,11539.1
0.0019237500000000001,12270.300000000001
0.0019531400000000003,13140.7
0.00197518,13859.999999999998
0.00200021,14754.0
0.00202225,15621.7
0.0020413000000000002,16433.7
0.0020633400000000003,17455.5
0.00208538,18579.9
0.00210742,19817.0
0.00212946,21181.3
0.0021515,22689.300000000003
0.0021735400000000003,24360.4
0.00219558,26217.199999999997
0.00221211,27747.0
0.00222864,29408.6
0.00224517,31216.8
0.0022616999999999997,33187.5
0.0022782300000000004,35338.4
0.0022947600000000003,37690.8
0.00231129,40269.399999999994
0.00232782,43100.4
0.00234436,46213.7
0.00236089,49645.200000000004
0.00237742,53436.399999999994
0.0023939499999999997,57632.0
0.0024104800000000004,62283.299999999996
0.0024270100000000003,67451.5
0.00244354,73206.7
0.0024545599999999997,77406.0
0.00246558,81925.6
0.0024766,86792.8
0.0024876200000000003,92037.9
0.00249864,97692.4
0.00250966,103791.00000000001
0.00252068,110369.99999999999
0.0025317,117467.00000000001
0.00254272,125122.0
0.00255374,133374.0
0.00256476,142263.0
0.00257578,151827.0
0.0025868,162100.0
0.0025978200000000003,173108.0
0.00260884,184872.0
0.00262537,203934.00000000003
0.0026419,224637.00000000003
0.0026584300000000003,246769.00000000003
0.00270986,319100.0
0.00272363,336970.0
0.00273741,352878.0
0.00275118,366064.0
0.00276037,372999.0
0.0027695500000000004,378252.0
0.00277873,381710.0
0.0027899400000000003,383330.0
0.0028013300000000003,382095.0
0.00281271,378136.0
0.00282373,371840.0
0.00283475,363450.0
0.00284577,353129.0
0.00285679,341626.0
0.0028733300000000003,322407.0
0.00292659,256419.0
0.00294128,239228.0
0.00295598,222969.99999999997
0.0029706700000000003,207751.00000000003
0.0029853600000000003,193611.0
0.0029927100000000004,186886.0
0.0030074000000000004,174349.0
0.0030221000000000002,162827.0
0.00303679,152260.0
0.00305148,142581.0
0.0030661800000000004,133719.0
0.00308087,125606.0
0.00309557,118175.00000000001
0.0031102599999999997,111364.0
0.00312495,105115.0
0.00313965,99376.20000000001
0.00315434,94098.29999999999
0.0031690299999999998,89238.0
0.00318373,84755.90000000001
0.00319842,80616.5
0.00321311,76787.90000000001
0.00322781,73241.6
0.00324985,68407.5
0.00327189,64051.799999999996
0.00329393,60153.8
0.00331597,56620.299999999996
0.00333801,53437.200000000004
0.0033600500000000003,50535.4
0.00338209,47905.4
0.00340413,45495.1
0.0034335200000000002,42602.1
0.00346291,40020.6
0.0034922900000000003,37707.700000000004
0.00352535,35382.7
0.00355841,33307.5
0.0035878000000000004,31662.2
0.00361443,30279.3
0.0036502500000000003,28593.600000000002
0.00368469,27145.800000000003
0.0037191299999999997,25826.899999999998
0.0037604500000000003,24407.3
0.00379719,23283.0
0.00383392,22249.1
0.0038706500000000002,21306.1
0.00390739,20443.3
0.00394412,19651.7
0.00399922,18575.9
0.00405432,17630.600000000002
0.00410942,16779.2
0.0041645200000000005,16022.8
0.00423799,15125.4
0.0043114600000000005,14339.4
0.0043849299999999996,13646.5
0.0044584,13031.900000000001
0.00455023,12354.8
0.004642070000000001,11765.6
0.0047339,11245.400000000001
0.0048441000000000005,10700.099999999999
0.0049497099999999995,10245.800000000001
0.00507828,9761.2
0.00520915,9334.55
0.0053469,8944.119999999999
0.005484650000000001,8603.39
0.00565684,8233.58
0.00584746,7886.02
0.006043560000000001,7579.32
0.00625882,7290.650000000001
0.00652748,6987.099999999999
0.00680767,6722.0
0.00714748,6454.83
0.0075204899999999995,6212.95
0.00759945,6169.92
0.00760534,6177.71
0.007607890000000001,6203.47
0.00761006,6256.2699999999995
0.00761518,6463.41
0.0076168,6490.35
0.007616970000000001,6490.599999999999
0.0076186100000000005,6467.22
0.007620720000000001,6385.65
0.00762392,6249.349999999999
0.0076260500000000005,6194.45
0.007628630000000001,6164.87
0.00764001,6146.0
0.00805607,5935.32
0.00854766,5732.22
0.009122960000000001,5539.72
0.00977182,5364.96
0.0105386,5199.37
0.0114824,5038.54
0.012631900000000001,4886.24
0.013939600000000002,4751.78
0.0155575,4623.11
0.0176178,4497.61
0.0201554,4380.25
0.0235486,4262.030000000001
0.027747,4152.53
0.032995000000000003,4050.67
0.0349856,4023.0499999999997
0.035189200000000004,4030.43
0.0352318,4044.5599999999995
0.0352513,4067.4599999999996
0.035259900000000004,4096.219999999999
0.0352644,4133.73
0.0352668,4172.39
0.0352691,4236.93
0.0352706,4295.45
0.035272000000000005,4374.360000000001
0.0352734,4479.29
0.0352749,4616.33
0.035276100000000005,4757.900000000001
0.0352772,4928.54
0.0352784,5130.6900000000005
0.0352796,5365.63
0.035281,5677.469999999999
0.0352824,6029.47
0.0352838,6449.06
0.0352879,7646.37
0.0352893,8023.84
0.035290300000000004,8274.660000000002
0.0352914,8481.57
0.0352923,8620.699999999999
0.0352932,8714.66
0.035294400000000004,8777.22
0.0352948,8782.1
0.0352957,8761.12
0.0352967,8686.27
0.0352975,8585.050000000001
0.0352984,8433.859999999999
0.0352993,8246.09
0.0353007,7910.45
0.0353023,7457.84
0.0353063,6245.96
0.035308,5777.25
0.035309,5509.599999999999
0.035310100000000004,5267.83
0.0353111,5053.29
0.0353123,4847.5
0.0353136,4658.75
0.035314899999999996,4505.77
0.035316200000000006,4384.35
0.0353176,4285.32
0.035318999999999996,4207.49
0.0353204,4150.9400000000005
0.0353226,4095.01
0.035325600000000006,4053.07
0.0353306,4025.93
0.0353433,4010.9399999999996
0.035381,4006.4399999999996
0.035521,4007.35
0.040947,3953.69
0.0427036,3948.06
0.0447305,3960.28
0.0461357,3993.32
0.0471357,4042.75
0.0478923,4107.51
0.0484328,4178.67
0.0488652,4259.44
0.0492436,4356.530000000001
0.0495679,4468.03
0.0498381,4589.01
0.050054299999999996,4711.65
0.05023,4833.47
0.0504327,5006.400000000001
0.0505732,5152.41
0.0507029,5312.179999999999
0.050800200000000004,5448.41
0.050940700000000005,5680.93
0.051070500000000005,5940.070000000001
0.0511569,6142.23
0.0512434,6372.860000000001
0.051329900000000005,6637.29
0.0514164,6942.1
0.051502900000000004,7295.429999999999
0.0515677,7598.82
0.0516326,7939.38
0.051697400000000004,8325.56
0.051762300000000004,8762.17
0.0518272,9261.1
0.051891999999999994,9829.4
0.05193520000000001,10254.6
0.0519785,10721.5
0.0520217,11234.699999999999
0.052065,11799.800000000001
0.0521082,12422.800000000001
0.0521514,13110.4
0.052194700000000004,13869.7
0.052237900000000004,14708.6
0.0522812,15635.300000000001
0.05232440000000001,16658.0
0.05236760000000001,17784.8
0.052410899999999996,19022.600000000002
0.0524541,20376.6
0.0524974,21848.399999999998
0.0525406,23434.4
0.0525838,25126.1
0.0527433,31742.3
0.0527892,33496.9
0.0528217,34618.1
0.0528541,35569.2
0.052886499999999996,36327.1
0.052918900000000005,36862.7
0.052940600000000004,37083.8
0.052973,37209.5
0.0530095,37029.8
0.053045999999999996,36540.8
0.0530838,35730.8
0.0531243,34573.6
0.05317840000000001,32679.6
0.053251400000000004,29781.0
0.053340500000000006,26150.000000000004
0.0534054,23657.300000000003
0.0534486,22117.5
0.0534919,20687.1
0.0535351,19369.1
0.053578400000000005,18161.7
0.053621600000000005,17060.0
0.053664800000000006,16057.4
0.053708099999999995,15146.5
0.0537513,14319.4
0.0537946,13568.499999999998
0.0538378,12886.4
0.053881,12266.5
0.0539243,11702.300000000001
0.0539675,11188.3
0.0540107,10719.300000000001
0.0540756,10091.300000000001
0.054140499999999994,9538.73
0.054205300000000005,9054.029999999999
0.0542702,8624.48
0.05433500000000001,8244.730000000001
0.0543999,7905.75
0.054486400000000004,7509.85
0.05457290000000001,7167.22
0.0546593,6868.98
0.0547458,6607.95
0.0548323,6378.3099999999995
0.054962000000000004,6082.54
0.0550917,5834.28
0.055243099999999996,5593.19
0.0553728,5416.820000000001
0.0555133,5253.9400000000005
0.055716,5058.51
0.0559457,4881.02
0.056161899999999994,4744.73
0.0564322,4606.320000000001
0.0567565,4475.76
0.0571348,4358.0
0.0575672,4254.7699999999995
0.0581077,4157.879999999999
0.0588103,4066.54
0.0597157,3984.33
0.0609115,3910.5
0.0625668,3843.2200000000003
0.064999,3779.69
0.0689176,3714.77
0.0756738,3641.76
0.08756470000000001,3552.07
0.10594200000000001,3448.23
0.11337600000000002,3413.22
0.11342200000000001,3415.47
0.113433,3425.2
0.113445,3457.38
0.11346400000000001,3553.93
0.11347000000000002,3564.87
0.11347700000000001,3550.21
0.11349700000000001,3451.26
0.11350400000000001,3429.64
0.113514,3417.3
0.113604,3412.13
0.11626900000000001,3402.59
0.116926,3410.6299999999997
0.11705700000000002,3422.8399999999997
0.11712700000000001,3439.5
0.11718200000000001,3469.74
0.11721500000000001,3508.1699999999996
0.117237,3556.6
0.11725200000000001,3609.04
0.117263,3667.36
0.11727000000000001,3721.72
0.117276,3780.48
0.11728300000000001,3873.61
0.117288,3956.68
0.11729200000000001,4063.44
0.11729700000000001,4197.669999999999
0.11730000000000002,4308.39
0.117303,4439.72
0.11730600000000001,4594.96
0.117309,4777.24
0.117312,4989.19
0.117315,5232.5
0.11731799999999999,5507.4
0.11732100000000001,5812.01
0.117325,6313.900000000001
0.117333,7244.18
0.11733700000000001,7597.900000000001
0.11734,7901.49
0.117343,8096.349999999999
0.11734500000000002,8208.25
0.117347,8284.470000000001
0.117349,8322.73
0.11735000000000001,8327.21
0.117352,8298.34
0.11735500000000001,8220.25
0.117357,8095.78
0.11735899999999999,7929.47
0.11736200000000002,7652.66
0.11736500000000001,7328.0
0.117371,6618.48
0.117376,6087.31
0.117379,5754.39
0.11738200000000001,5447.339999999999
0.11738500000000002,5170.87
0.117388,4926.66
0.11739100000000001,4714.54
0.117394,4532.549999999999
0.117397,4378.099999999999
0.1174,4247.849999999999
0.117403,4138.5199999999995
0.117407,4021.2700000000004
0.117411,3928.03
0.117415,3853.37
0.11741900000000001,3793.06
0.117425,3720.4
0.117434,3643.67
0.11744300000000002,3591.1
0.117458,3534.7400000000002
0.117481,3486.1
0.11750300000000001,3458.39
0.11755100000000002,3428.54
0.11765000000000002,3406.6299999999997
0.11795100000000001,3393.7
0.13170400000000002,3335.72
0.131788,3337.66
0.131803,3348.6699999999996
0.13181099999999998,3373.53
0.131818,3411.9100000000003
0.13182400000000002,3473.23
0.131831,3567.83
0.13184,3694.88
0.131845,3740.6000000000004
0.131849,3759.71
0.13185,3760.0099999999998
0.13185500000000003,3745.2999999999997
0.131859,3710.6
0.131865,3628.72
0.13187400000000002,3498.6600000000003
0.13188,3429.5499999999997
0.131887,3383.84
0.131894,3355.1099999999997
0.131903,3340.9300000000003
0.13196300000000002,3334.94
0.142543,3297.4199999999996
0.142899,3304.22
0.14295500000000003,3315.6400000000003
0.142985,3334.5099999999998
0.14300200000000002,3364.0699999999997
0.143013,3405.44
0.14302,3448.47
0.143025,3498.85
0.143031,3567.33
0.143035,3643.69
0.14304,3735.64
0.143049,3952.19
0.14305600000000002,4111.889999999999
0.143061,4195.41
0.143066,4248.92
0.143069,4265.6
0.14307,4266.639999999999
0.143074,4253.549999999999
0.143077,4217.74
0.14308200000000001,4139.99
0.143089,3986.0099999999998
0.143099,3766.29
0.143103,3670.04
0.14310799999999999,3588.88
0.14311300000000002,3516.5
0.143119,3457.29
0.143127,3406.7799999999997
0.143136,3370.24
0.143152,3338.37
0.14317500000000002,3319.34
0.143246,3302.72
0.14362,3293.8
0.16120500000000001,3243.96
0.171765,3231.7599999999998
0.17852,3243.1899999999996
0.182974,3271.27
0.18602000000000002,3311.0400000000004
0.18832400000000002,3362.85
0.18956,3406.98
0.18981,3426.5099999999998
0.18990700000000002,3448.1000000000004
0.189951,3472.52
0.189979,3503.69
0.189994,3534.0699999999997
0.190006,3573.71
0.19001600000000002,3622.37
0.19002300000000003,3678.1600000000003
0.190028,3730.56
0.190033,3801.21
0.190038,3897.52
0.19004000000000001,3958.22
0.190044,4079.7999999999997
0.19004700000000002,4192.85
0.19005000000000002,4327.87
0.19005300000000003,4487.759999999999
0.190056,4674.9400000000005
0.190058,4859.15
0.190061,5065.54
0.190064,5294.17
0.190066,5543.99
0.19007000000000002,5961.15
0.19007600000000002,6643.58
0.19008100000000003,7334.63
0.190085,7757.76
0.190088,8035.370000000001
0.190091,8242.07
0.190093,8396.140000000001
0.19009600000000001,8507.71
0.190098,8569.66
0.19010000000000002,8591.75
0.19010300000000002,8560.140000000001
0.190105,8476.33
0.19010800000000003,8350.48
0.19011,8183.75
0.190113,7933.71
0.190116,7641.47
0.19012,7206.070000000001
0.190129,6057.29
0.190133,5632.98
0.190137,5273.7
0.19014,4958.09
0.190143,4772.929999999999
0.190146,4573.21
0.190149,4401.88
0.19015200000000002,4256.56
0.19015500000000002,4134.55
0.19015800000000002,4025.19
0.19016100000000002,3936.02
0.190166,3832.58
0.19017,3758.93
0.190177,3689.79
0.190183,3641.4
0.19019200000000003,3592.36
0.190205,3549.68
0.190227,3508.83
0.190256,3482.78
0.190302,3463.77
0.190414,3451.64
