E(MeV),xs(mb)
1.0e-11,477278.99999999994
1.03223e-11,469776.0
1.06549e-11,462395.0
1.0998399999999998e-11,455126.0
1.13527e-11,447976.0
1.1718599999999999e-11,440935.0
1.2096199999999998e-11,434007.0
1.24861e-11,427186.0
1.2888399999999999e-11,420475.0
1.3303799999999998e-11,413868.0
1.37325e-11,407367.0
1.41751e-11,400966.0
1.4631799999999997e-11,394668.0
1.51034e-11,388467.0
1.5590099999999998e-11,382366.0
1.6092599999999998e-11,376359.0
1.66111e-11,370449.0
1.71465e-11,364630.0
1.7699e-11,358904.0
1.8269399999999998e-11,353267.0
1.88581e-11,347721.0
1.94659e-11,342260.0
2.00931e-11,336887.0
2.0740699999999998e-11,331598.0
2.1408999999999998e-11,326393.0
2.2099099999999997e-11,321268.0
2.28111e-11,316226.0
2.3546399999999998e-11,311262.0
2.4305099999999997e-11,306378.0
2.50884e-11,301570.0
2.5896799999999997e-11,296838.0
2.67315e-11,292180.0
2.75928e-11,287597.0
2.8482199999999998e-11,283085.0
2.93999e-11,278645.0
3.0347499999999995e-11,274274.0
3.13253e-11,269973.0
3.2335e-11,265739.0
3.33769e-11,261573.0
3.44526e-11,257472.0
3.55627e-11,253436.0
3.67089e-11,249463.0
3.7891799999999997e-11,245554.0
3.9113e-11,241706.00000000003
4.0373400000000003e-11,237919.0
4.1674599999999996e-11,234192.0
4.3017399999999996e-11,230524.0
4.440389999999999e-11,226913.0
4.58347e-11,223360.0
4.7311899999999994e-11,219862.0
4.883639999999999e-11,216420.0
5.0410399999999995e-11,213032.99999999997
5.20348e-11,209699.0
5.37119e-11,206416.99999999997
5.54426e-11,203188.0
5.7229499999999995e-11,200010.00000000003
5.907359999999999e-11,196882.0
6.09775e-11,193803.0
6.29424e-11,190774.0
6.497099999999999e-11,187792.0
6.70645e-11,184857.0
6.9226e-11,181969.0
7.145659999999999e-11,179127.0
7.37596e-11,176329.0
7.61364e-11,173576.0
7.85902e-11,170866.0
8.11227e-11,168200.0
8.37372e-11,165576.0
8.643549999999999e-11,162993.0
8.922119999999998e-11,160451.0
9.209619999999999e-11,157950.0
9.506439999999999e-11,155488.0
9.81277e-11,153066.0
1.01291e-10,150681.0
1.04554e-10,148335.0
1.07924e-10,146026.0
1.11402e-10,143754.0
1.1499200000000001e-10,141517.0
1.1869700000000001e-10,139316.0
1.22523e-10,137150.0
1.26471e-10,135019.0
1.30547e-10,132921.0
1.34754e-10,130858.00000000001
1.3909700000000002e-10,128826.0
1.43579e-10,126827.0
1.48207e-10,124860.0
1.52982e-10,122924.00000000001
1.57913e-10,121019.00000000001
1.6300100000000001e-10,119144.0
1.68254e-10,117299.0
1.73676e-10,115484.00000000001
1.79274e-10,113697.0
1.8505000000000002e-10,111940.0
1.91014e-10,110210.00000000001
1.97169e-10,108507.0
2.03524e-10,106832.0
2.1008200000000003e-10,105184.00000000001
2.16853e-10,103560.99999999999
2.2384e-10,101966.0
2.31055e-10,100394.99999999999
2.385e-10,98849.2
2.46187e-10,97328.1
2.5412e-10,95831.70000000001
2.6231e-10,94358.90000000001
2.70762e-10,92910.0
2.7948900000000003e-10,91484.0
2.88494e-10,90081.1
2.9779300000000004e-10,88700.3
3.07388e-10,87342.0
3.1729500000000004e-10,86005.1
3.27519e-10,84690.0
3.38075e-10,83395.6
3.4896900000000003e-10,82122.3
3.6021600000000004e-10,80869.09999999999
3.7182300000000004e-10,79636.3
3.83807e-10,78423.0
3.96174e-10,77229.40000000001
4.08943e-10,76054.7
4.2212e-10,74899.1
4.3572499999999996e-10,73761.90000000001
4.4976500000000005e-10,72643.1
4.6426100000000007e-10,71542.1
4.79221e-10,70458.9
4.94666e-10,69393.0
5.10605e-10,68344.4
5.270620000000001e-10,67312.4
5.440450000000001e-10,66297.2
5.6158e-10,65298.2
5.796750000000001e-10,64315.3
5.98358e-10,63348.1
6.176389999999999e-10,62396.700000000004
6.37545e-10,61460.299999999996
6.58089e-10,60539.1
6.79298e-10,59632.6
7.01188e-10,58740.9
7.237860000000001e-10,57863.3
7.47109e-10,56999.899999999994
7.71188e-10,56150.3
7.960380000000001e-10,55314.50000000001
8.21693e-10,54492.0
8.48171e-10,53682.8
8.75507e-10,52886.49999999999
9.037190000000002e-10,52103.1
9.32845e-10,51332.2
9.62904e-10,50573.8
9.93937e-10,49827.399999999994
1.0259700000000001e-9,49093.1
1.05903e-9,48370.49999999999
1.09316e-9,47659.6
1.12839e-9,46960.0
1.16475e-9,46271.8
1.2022900000000002e-9,45594.5
1.2410300000000002e-9,44928.100000000006
1.28103e-9,44272.299999999996
1.3251100000000002e-9,43584.50000000001
1.3707100000000001e-9,42908.4
1.41787e-9,42243.8
1.4666600000000002e-9,41590.6
1.5171300000000001e-9,40948.5
1.56934e-9,40317.4
1.6233400000000001e-9,39697.1
1.6792000000000002e-9,39087.299999999996
1.7369900000000002e-9,38488.0
1.7967600000000001e-9,37898.9
1.85859e-9,37319.8
1.92254e-9,36750.6
1.9887e-9,36191.0
2.05714e-9,35641.0
2.1279200000000002e-9,35100.4
2.2011500000000004e-9,34569.0
2.27689e-9,34046.6
2.35524e-9,33533.1
2.43629e-9,33028.4
2.52013e-9,32532.199999999997
2.6068500000000004e-9,32044.5
2.6965499999999998e-9,31565.1
2.7893400000000002e-9,31093.8
2.8853300000000004e-9,30630.5
2.98461e-9,30175.100000000002
3.0873200000000005e-9,29727.399999999998
3.1935600000000003e-9,29287.3
3.3034500000000006e-9,28854.7
3.41713e-9,28429.5
3.53471e-9,28011.499999999996
3.6563500000000005e-9,27600.5
3.78217e-9,27196.5
3.91231e-9,26799.4
4.0469400000000005e-9,26408.999999999996
4.1862e-9,26025.3
4.330250000000001e-9,25648.0
4.47926e-9,25277.2
4.6334e-9,24912.6
4.7928400000000006e-9,24554.2
4.95777e-9,24201.800000000003
5.128370000000001e-9,23855.5
5.3048400000000005e-9,23515.0
5.487390000000001e-9,23180.3
5.6762200000000005e-9,22851.2
5.871540000000001e-9,22527.7
6.07359e-9,22209.699999999997
6.28259e-9,21897.000000000004
6.49878e-9,21589.7
6.7224100000000006e-9,21287.5
6.9537400000000004e-9,20990.5
7.19302e-9,20698.500000000004
7.45628e-9,20393.6
7.7292e-9,20094.2
8.01208e-9,19800.2
8.30534e-9,19511.4
8.60931e-9,19227.9
8.924429999999999e-9,18949.4
9.25105e-9,18675.9
9.589670000000001e-9,18407.3
9.94064e-9,18143.6
1.0304500000000001e-8,17884.6
1.0681600000000001e-8,17630.2
1.10726e-8,17380.4
1.1477800000000001e-8,17135.100000000002
1.1898e-8,16894.100000000002
1.2333400000000002e-8,16657.5
1.27849e-8,16425.1
1.32528e-8,16196.900000000001
1.3737900000000002e-8,15972.699999999999
1.4240600000000001e-8,15752.6
1.47619e-8,15536.4
1.5302199999999998e-8,15324.1
1.58623e-8,15115.6
1.64428e-8,14910.8
1.70447e-8,14709.6
1.76685e-8,14512.1
1.83152e-8,14318.1
1.89855e-8,14127.6
1.96804e-8,13940.5
2.0400700000000002e-8,13756.699999999999
2.1192099999999998e-8,13565.7
2.2014300000000004e-8,13378.300000000001
2.2868300000000003e-8,13194.5
2.37555e-8,13014.2
2.46771e-8,12837.300000000001
2.52522e-8,12731.8
2.5299999999999998e-8,12723.199999999999
2.6281500000000003e-8,12551.8
2.73011e-8,12383.599999999999
2.83603e-8,12218.6
2.94605e-8,12056.7
3.06034e-8,11897.9
3.17907e-8,11742.0
3.3024e-8,11589.1
3.43052e-8,11439.1
3.5636e-8,11291.9
3.70185e-8,11147.499999999998
3.84547e-8,11005.8
3.99465e-8,10866.7
4.1496199999999994e-8,10730.3
4.31974e-8,10589.2
4.4968199999999994e-8,10450.8
4.68117e-8,10315.2
4.87306e-8,10182.3
5.07283e-8,10052.099999999999
5.28078e-8,9924.45
5.49727e-8,9799.34
5.7226100000000004e-8,9676.72
5.95722e-8,9556.51
6.201410000000001e-8,9438.689999999999
6.45565e-8,9323.19
6.72027e-8,9209.99
6.99578e-8,9099.019999999999
7.282549999999999e-8,8990.27
7.59713e-8,8878.109999999999
7.92531e-8,8768.3
8.26766e-8,8660.769999999999
8.62481e-8,8555.490000000002
8.99737e-8,8452.41
9.38604e-8,8351.470000000001
9.79149e-8,8252.64
1.0214499999999999e-7,8155.88
1.0655699999999998e-7,8061.14
1.1115999999999998e-7,7968.39
1.1620699999999999e-7,7873.05
1.2148399999999998e-7,7779.79
1.2699999999999999e-7,7688.53
1.32766e-7,7599.25
1.38795e-7,7511.91
1.45097e-7,7426.47
1.51685e-7,7342.88
1.58572e-7,7261.110000000001
1.6577299999999998e-7,7181.099999999999
1.73666e-7,7099.15
1.81936e-7,7019.05
1.9059999999999997e-7,6940.7699999999995
1.99676e-7,6864.26
2.0918399999999998e-7,6789.49
2.19145e-7,6716.43
2.2957999999999997e-7,6645.01
2.41021e-7,6572.02
2.53033e-7,6500.72
2.6564299999999997e-7,6431.09
2.7888199999999997e-7,6363.08
2.9278e-7,6296.67
3.07372e-7,6231.78
3.22689e-7,6168.41
3.39488e-7,6103.85
3.57161e-7,6040.83
3.75754e-7,5979.320000000001
3.95315e-7,5919.28
4.15895e-7,5860.68
4.37546e-7,5803.5
4.6129899999999995e-7,5745.36
4.863389999999999e-7,5688.61
5.12742e-7,5633.2300000000005
5.40575e-7,5579.19
5.71126e-7,5524.36
6.034049999999999e-7,5470.900000000001
6.37507e-7,5418.76
6.73537e-7,5367.88
7.131109999999999e-7,5316.360000000001
7.55007e-7,5266.13
7.99368e-7,5217.120000000001
8.463319999999999e-7,5169.32
8.979539999999999e-7,5121.0199999999995
9.52724e-7,5073.85
1.0065699999999998e-6,5031.07
1.0796099999999999e-6,4977.929999999999
1.17428e-6,4916.1900000000005
1.31355e-6,4836.820000000001
1.5005699999999999e-6,4746.75
1.7752799999999998e-6,4638.82
2.1904499999999995e-6,4511.26
2.76002e-6,4378.9400000000005
3.4778799999999996e-6,4252.11
4.41313e-6,4124.74
5.63912e-6,3994.36
7.2565299999999995e-6,3856.95
9.46958e-6,3704.91
1.2271600000000001e-5,3545.2
1.59019e-5,3370.1400000000003
2.03205e-5,3185.88
2.5604400000000002e-5,2992.87
3.18151e-5,2791.92
3.87091e-5,2592.25
4.6116400000000005e-5,2397.78
5.4559100000000004e-5,2195.84
6.36494e-5,1996.1599999999999
7.37378e-5,1790.67
8.48268e-5,1579.06
9.488720000000002e-5,1397.6299999999999
0.000100356,1307.01
0.00010320800000000002,1266.87
0.00010539700000000001,1244.41
0.000106884,1237.3700000000001
0.000107215,1237.19
0.00010834900000000002,1242.33
0.000109111,1252.51
0.00010987800000000002,1270.72
0.000110456,1291.74
0.000111039,1321.65
0.000111428,1347.9399999999998
0.00011181700000000002,1380.73
0.000112211,1422.3
0.00011250700000000001,1460.3
0.00011280300000000001,1505.49
0.000113099,1559.42
0.00011339500000000001,1624.05
0.00011360900000000002,1678.99
0.000113824,1741.98
0.000114038,1814.54
0.000114253,1898.6000000000001
0.00011446700000000001,1996.48
0.000114666,2101.9
0.00011485600000000001,2219.14
0.000114983,2307.56
0.00011511100000000002,2405.48
0.000115238,2514.21
0.00011536500000000002,2635.3
0.000115492,2770.56
0.00011560600000000002,2906.22
0.00011570800000000001,3039.44
0.00011580999999999999,3186.15
0.000115912,3348.1299999999997
0.00011601300000000002,3527.48
0.000116115,3726.6400000000003
0.000116217,3948.5299999999997
0.000116319,4196.6
0.000116404,4429.34
0.000116509,4747.55
0.00011657900000000001,4983.33
0.00011664900000000001,5240.67
0.000116719,5522.2300000000005
0.00011678900000000001,5831.08
0.00011685900000000001,6170.81
0.000116929,6545.59
0.000116986,6881.719999999999
0.00011704300000000001,7247.71
0.00011710000000000001,7647.179999999999
0.000117158,8084.300000000001
0.00011721500000000001,8563.96
0.000117272,9091.8
0.000117329,9674.53
0.000117387,10320.1
0.00011743100000000001,10871.599999999999
0.00011747600000000001,11471.9
0.00011752000000000001,12127.2
0.00011756500000000002,12844.4
0.00011760900000000002,13631.800000000001
0.000117654,14499.2
0.000117698,15458.099999999999
0.000117743,16522.399999999998
0.00011777700000000001,17426.0
0.000117811,18411.5
0.00011784600000000001,19489.7
0.00011788000000000002,20673.6
0.00011791400000000001,21978.5
0.00011794899999999999,23423.2
0.000117983,25030.5
0.000118017,26828.2
0.00011804300000000001,28303.1
0.000118068,29918.5
0.00011809300000000001,31695.000000000004
0.000118119,33656.700000000004
0.00011814400000000001,35832.5
0.00011817,38256.5
0.00011819500000000002,40969.9
0.000118214,43223.9
0.00011823200000000002,45519.99999999999
0.000118255,48781.7
0.00011827200000000001,51486.1
0.000118289,54439.799999999996
0.000118306,57671.700000000004
0.00011832400000000001,61213.3
0.00011834100000000001,65099.9
0.00011835800000000001,69370.0
0.00011837500000000002,74066.8
0.00011839200000000001,79236.1
0.00011840900000000001,84708.40000000001
0.000118424,90232.9
0.00011843900000000001,96254.2
0.000118455,102816.0
0.00011847000000000001,109964.0
0.000118485,117747.0
0.00011850000000000001,126218.00000000001
0.000118516,135427.0
0.00011853100000000002,145429.0
0.000118546,156281.0
0.000118561,168038.0
0.00011857400000000001,178569.0
0.00011858900000000001,192133.0
0.00011860500000000001,206761.99999999997
0.00011862,222507.0
0.000118635,239420.0
0.00011865000000000001,257547.00000000003
0.000118666,276929.0
0.000118681,297603.0
0.00011869900000000001,324157.0
0.00011872100000000002,357584.0
0.000118742,393663.0
0.000118763,432371.0
0.00011878800000000002,480753.0
0.000118817,540031.0
0.000118841,593872.0
0.00011887200000000001,664426.0
0.00011893300000000001,812077.0
0.000118983,934866.0000000001
0.000119024,1.0271999999999999e6
0.000119055,1.09012e6
0.000119085,1.1456e6
0.000119116,1.19196e6
0.000119136,1.21706e6
0.000119156,1.23709e6
0.00011918100000000001,1.25404e6
0.00011920900000000002,1.26349e6
0.00011921800000000001,1.26427e6
0.00011924200000000001,1.26059e6
0.000119264,1.25064e6
0.00011928700000000001,1.23322e6
0.000119311,1.20729e6
0.000119335,1.17434e6
0.00011936000000000001,1.13503e6
0.00011938400000000001,1.09017e6
0.00011942100000000001,1.0144e6
0.000119464,916888.9999999999
0.00011956199999999999,681446.0
0.00011959400000000001,607733.0
0.00011962600000000001,537905.0
0.00011965,487894.99999999994
0.000119671,448091.0
0.000119691,410608.00000000006
0.00011971200000000001,375512.0
0.000119733,342839.0
0.000119746,322399.0
0.00011976400000000001,297479.0
0.00011978200000000001,274307.0
0.0001198,252830.99999999997
0.00011981800000000001,232990.0
0.00011983500000000001,214710.0
0.00011985300000000002,197917.0
0.000119871,182524.0
0.000119889,168448.0
0.00011990600000000001,156038.0
0.00011992300000000001,144693.0
0.00011994000000000001,134335.0
0.000119957,124889.99999999999
0.00011997500000000002,116282.0
0.00011999200000000001,108444.99999999999
0.00012000900000000001,101311.0
0.00012002600000000002,94817.90000000001
0.00012004300000000002,88907.3
0.00012006,83525.8
0.000120078,78449.2
0.00012009700000000001,73522.6
0.000120116,69069.7
0.000120135,65039.0
0.00012015400000000002,61383.5
0.000120174,58061.9
0.000120193,55036.3
0.00012021200000000001,52274.5
0.000120237,48952.0
0.00012026300000000001,45986.5
0.000120284,43692.6
0.000120311,41103.8
0.000120339,38778.299999999996
0.000120366,36679.2
0.000120393,34775.5
0.00012042,33041.7
0.00012045600000000001,30957.0
0.00012049300000000001,29094.4
0.000120529,27420.399999999998
0.00012056500000000002,25908.1
0.000120601,24552.7
0.000120637,23316.0
0.000120684,21826.9
0.000120732,20495.0
0.00012078,19297.7
0.000120827,18216.399999999998
0.00012087500000000001,17235.8
0.00012092300000000001,16343.4
0.00012097800000000002,15399.199999999999
0.00012104200000000001,14431.099999999999
0.000121105,13564.7
0.000121169,12785.800000000001
0.000121233,12082.5
0.00012129600000000001,11445.099999999999
0.00012136,10865.400000000001
0.00012142299999999999,10336.300000000001
0.000121487,9852.0
0.000121582,9198.66
0.00012167800000000001,8620.630000000001
0.000121773,8106.47
0.000121868,7646.860000000001
0.00012196400000000001,7234.110000000001
0.000122078,6791.75
0.00012219300000000001,6398.6900000000005
0.00012230700000000002,6047.6
0.000122421,5732.54
0.000122536,5448.610000000001
0.00012265,5191.740000000001
0.000122765,4958.5
0.000122879,4746.0
0.000123006,4531.21
0.00012313300000000002,4336.12
0.000123324,4075.21
0.000123515,3846.5600000000004
0.000123706,3644.86
0.00012389600000000002,3465.87
0.000124074,3316.29
0.00012425200000000002,3181.28
0.00012451900000000002,3001.9900000000002
0.000124786,2845.8700000000003
0.000125053,2708.75
0.00012532000000000003,2587.5499999999997
0.00012565200000000002,2455.55
0.000125983,2340.51
0.000126315,2239.43
0.000126646,2149.9799999999996
0.000127088,2045.63
0.000127537,1954.04
0.000127985,1874.06
0.000128433,1803.61
0.00012888100000000002,1741.13
0.00012956300000000002,1658.37
0.00013024500000000002,1587.25
0.00013093,1525.19
0.000131622,1470.19
0.000132544,1406.29
0.000133479,1350.1399999999999
0.000134414,1300.79
0.00013583600000000002,1235.77
0.000137271,1179.2800000000002
0.000138233,1145.33
0.000140183,1083.84
0.00014216100000000002,1029.13
0.000144167,979.2909999999999
0.00014723200000000002,911.1969999999999
0.000150355,848.852
0.000153552,790.359
0.000156809,734.784
0.000161265,664.1650000000001
0.00016463300000000002,614.33
0.00016794300000000001,568.164
0.000171491,522.595
0.000173887,494.715
0.00017567800000000002,476.01300000000003
0.000177395,460.49100000000004
0.000178647,451.274
0.000179898,444.51099999999997
0.00018102000000000003,441.307
0.00018139400000000003,441.085
0.000182031,441.927
0.00018266700000000002,444.67800000000005
0.000183303,449.93800000000005
0.00018378,456.045
0.000184212,463.63599999999997
0.000184621,473.09700000000004
0.00018503,485.43
0.000185439,501.569
0.00018571100000000002,515.0310000000001
0.00018598400000000001,531.225
0.000186206,546.845
0.00018646100000000002,568.2520000000001
0.000186717,594.164
0.000186887,614.534
0.000187058,637.927
0.000187228,664.954
0.000187398,696.39
0.00018754,726.6560000000001
0.00018765400000000002,754.0409999999999
0.00018776800000000002,784.726
0.000187881,819.2539999999999
0.00018799500000000002,858.2900000000001
0.000188108,902.6479999999999
0.00018822200000000001,953.346
0.000188307,996.285
0.000188392,1044.17
0.000188466,1090.28
0.00018854,1141.33
0.000188614,1198.08
0.000188688,1261.4399999999998
0.000188762,1332.51
0.000188836,1412.6499999999999
0.000188891,1479.72
0.000188946,1553.7
0.000189012,1651.3
0.000189068,1746.8300000000002
0.00018912500000000003,1854.12
0.000189182,1975.41
0.000189225,2077.25
0.00018926700000000002,2190.1099999999997
0.00018931000000000002,2315.87
0.00018935200000000003,2456.94
0.000189395,2616.3599999999997
0.000189423,2734.71
0.00018945800000000001,2891.7799999999997
0.000189487,3044.89
0.00018951700000000002,3215.14
0.000189547,3405.4700000000003
0.00018957700000000002,3619.35
0.000189607,3860.98
0.00018963600000000003,4135.37
0.00018965600000000002,4339.400000000001
0.000189676,4562.64
0.000189696,4807.38
0.000189716,5076.13
0.000189736,5371.71
0.000189756,5697.219999999999
0.000189776,6066.93
0.000189797,6476.03
0.000189817,6929.0599999999995
0.000189838,7430.94
0.000189858,7987.04
0.000189878,8603.12
0.000189899,9285.42
0.000189919,10040.500000000002
0.00018994000000000001,10875.5
0.00018996,11797.800000000001
0.00018998,12755.9
0.000189997,13677.0
0.00019001400000000001,14674.199999999999
0.000190031,15752.1
0.000190048,16915.6
0.000190065,18169.5
0.000190082,19518.8
0.000190099,20967.699999999997
0.000190116,22521.0
0.00019013300000000002,24182.800000000003
0.00019015000000000001,25957.0
0.000190174,28636.4
0.00019019200000000002,30835.4
0.00019021,33173.8
0.000190228,35653.2
0.000190256,39639.1
0.00019028300000000002,43942.6
0.000190308,48160.100000000006
0.00019032800000000002,51797.00000000001
0.000190356,56890.5
0.000190397,64995.5
0.00019044300000000002,74705.6
0.00019055200000000003,98245.79999999999
0.000190599,107898.0
0.000190641,115691.00000000001
0.000190679,121944.99999999999
0.000190712,126497.0
0.00019074500000000003,130185.0
0.000190777,132888.0
0.00019080800000000002,134561.0
0.000190835,135222.0
0.000190845,135276.0
0.000190878,134744.0
0.00019090800000000002,133317.0
0.00019094100000000003,130772.0
0.000190974,127258.0
0.00019100600000000002,122864.0
0.000191041,117389.00000000001
0.000191079,110507.0
0.00019112800000000002,100709.0
0.00019120200000000002,84942.7
0.00019127,70311.2
0.00019130700000000002,62748.799999999996
0.00019134300000000001,55703.7
0.000191375,49875.5
0.00019139900000000003,45760.6
0.000191422,41878.399999999994
0.000191446,38236.3
0.00019147400000000002,34371.6
0.000191492,31971.699999999997
0.00019151000000000001,29711.5
0.00019152800000000003,27588.6
0.000191546,25599.9
0.000191564,23741.7
0.000191583,22009.500000000004
0.000191603,20205.5
0.00019162,18813.8
0.000191637,17519.2
0.000191654,16316.5
0.000191671,15201.4
0.000191688,14168.8
0.000191705,13213.999999999998
0.000191722,12332.300000000001
0.00019173900000000002,11519.1
0.000191756,10769.7
0.000191773,10079.800000000001
0.00019178900000000002,9485.82
0.00019180500000000002,8936.67
0.000191821,8429.16
0.000191837,7960.33
0.00019185300000000002,7527.2699999999995
0.000191869,7127.32
0.000191885,6757.91
0.00019190100000000002,6416.68
0.000191925,5952.72
0.00019194800000000003,5540.21
