E(MeV),xs(mb)
1.0e-11,150982.0
1.03223e-11,148618.0
1.06549e-11,146293.0
1.0998399999999998e-11,144004.0
1.13527e-11,141751.0
1.1718599999999999e-11,139534.0
1.2096199999999998e-11,137352.0
1.24861e-11,135205.0
1.2888399999999999e-11,133092.0
1.3303799999999998e-11,131011.00000000001
1.37325e-11,128965.0
1.41751e-11,126950.00000000001
1.4631799999999997e-11,124967.99999999999
1.51034e-11,123015.99999999999
1.5590099999999998e-11,121096.0
1.6092599999999998e-11,119205.99999999999
1.66111e-11,117347.0
1.71465e-11,115516.0
1.7699e-11,113715.00000000001
1.8269399999999998e-11,111942.00000000001
1.88581e-11,110198.0
1.94659e-11,108481.0
2.00931e-11,106790.99999999999
2.0740699999999998e-11,105128.0
2.1408999999999998e-11,103492.0
2.2099099999999997e-11,101882.0
2.28111e-11,100296.99999999999
2.3546399999999998e-11,98737.8
2.4305099999999997e-11,97203.3
2.50884e-11,95692.90000000001
2.5896799999999997e-11,94207.0
2.67315e-11,92744.3
2.75928e-11,91305.3
2.8482199999999998e-11,89888.9
2.93999e-11,88495.4
3.0347499999999995e-11,87123.9
3.13253e-11,85774.5
3.2335e-11,84446.4
3.33769e-11,83139.8
3.44526e-11,81853.70000000001
3.55627e-11,80588.59999999999
3.67089e-11,79343.4
3.7891799999999997e-11,78118.4
3.9113e-11,76912.7
4.0373400000000003e-11,75726.6
4.1674599999999996e-11,74559.3
4.3017399999999996e-11,73410.90000000001
4.440389999999999e-11,72280.7
4.58347e-11,71168.9
4.7311899999999994e-11,70074.8
4.883639999999999e-11,68998.40000000001
5.0410399999999995e-11,67939.1
5.20348e-11,66897.09999999999
5.37119e-11,65871.6
5.54426e-11,64862.9
5.7229499999999995e-11,63870.2
5.907359999999999e-11,62893.8
6.09775e-11,61932.9
6.29424e-11,60987.7
6.497099999999999e-11,60057.600000000006
6.70645e-11,59142.700000000004
6.9226e-11,58242.399999999994
7.145659999999999e-11,57356.9
7.37596e-11,56485.6
7.61364e-11,55628.6
7.85902e-11,54785.3
8.11227e-11,53955.9
8.37372e-11,53139.799999999996
8.643549999999999e-11,52337.100000000006
8.922119999999998e-11,51547.4
9.209619999999999e-11,50770.600000000006
9.506439999999999e-11,50006.399999999994
9.81277e-11,49254.8
1.01291e-10,48515.2
1.04554e-10,47788.00000000001
1.07924e-10,47072.5
1.11402e-10,46368.9
1.1499200000000001e-10,45676.6
1.1869700000000001e-10,44995.9
1.22523e-10,44326.100000000006
1.26471e-10,43667.6
1.30547e-10,43019.600000000006
1.34754e-10,42382.600000000006
1.3909700000000002e-10,41755.8
1.43579e-10,41139.6
1.48207e-10,40533.299999999996
1.52982e-10,39937.200000000004
1.57913e-10,39350.8
1.6300100000000001e-10,38774.3
1.68254e-10,38207.1
1.73676e-10,37649.5
1.79274e-10,37101.0
1.8505000000000002e-10,36561.7
1.91014e-10,36031.200000000004
1.97169e-10,35509.7
2.03524e-10,34996.7
2.1008200000000003e-10,34492.4
2.17311e-10,33963.700000000004
2.24789e-10,33444.4
2.32524e-10,32934.299999999996
2.40526e-10,32433.2
2.4880300000000004e-10,31941.1
2.57364e-10,31457.8
2.6622e-10,30983.0
2.7538100000000004e-10,30516.800000000003
2.84857e-10,30058.8
2.9466000000000005e-10,29609.0
3.04799e-10,29167.3
3.1528800000000004e-10,28733.5
3.26137e-10,28307.4
3.3736e-10,27888.899999999998
3.4896900000000003e-10,27477.9
3.60977e-10,27074.3
3.73399e-10,26677.9
3.86248e-10,26288.6
3.99539e-10,25906.3
4.13288e-10,25530.8
4.2751e-10,25162.0
4.42221e-10,24799.899999999998
4.57438e-10,24444.2
4.73179e-10,24094.899999999998
4.89462e-10,23751.8
5.063049999999999e-10,23414.899999999998
5.23727e-10,23083.999999999996
5.41749e-10,22759.0
5.60392e-10,22439.8
5.796750000000001e-10,22126.399999999998
5.99623e-10,21818.5
6.202560000000001e-10,21516.1
6.416e-10,21219.199999999997
6.63678e-10,20927.5
6.865160000000001e-10,20641.0
7.1014e-10,20359.699999999997
7.361340000000001e-10,20066.199999999997
7.63075e-10,19778.3
7.91006e-10,19495.8
8.199550000000001e-10,19218.6
8.49969e-10,18946.7
8.810760000000001e-10,18679.9
9.13327e-10,18418.1
9.46752e-10,18161.3
9.81407e-10,17909.3
1.0173200000000002e-9,17662.0
1.05456e-9,17419.3
1.09316e-9,17181.3
1.1331700000000001e-9,16947.600000000002
1.17464e-9,16718.4
1.2176400000000002e-9,16493.4
1.2622e-9,16272.599999999999
1.3084000000000002e-9,16056.0
1.35629e-9,15843.400000000001
1.40593e-9,15634.8
1.45739e-9,15430.1
1.51073e-9,15229.1
1.56934e-9,15020.4
1.6302200000000002e-9,14815.9
1.6934700000000002e-9,14615.400000000001
1.75917e-9,14418.800000000001
1.82741e-9,14226.0
1.8983100000000002e-9,14037.1
1.9719500000000004e-9,13851.800000000001
2.04845e-9,13670.199999999999
2.1279200000000002e-9,13492.1
2.21048e-9,13317.6
2.29623e-9,13146.4
2.3853100000000003e-9,12978.6
2.47785e-9,12814.000000000002
2.5739800000000002e-9,12652.699999999999
2.6738400000000004e-9,12494.5
2.77757e-9,12339.4
2.8914300000000002e-9,12179.0
3.0099600000000002e-9,12021.900000000001
3.13335e-9,11867.9
3.2618e-9,11717.2
3.39551e-9,11569.5
3.53471e-9,11424.9
3.67961e-9,11283.2
3.8304600000000004e-9,11144.400000000001
3.9874700000000005e-9,11008.500000000002
4.15094e-9,10875.300000000001
4.321100000000001e-9,10744.9
4.49825e-9,10617.099999999999
4.692560000000001e-9,10485.4
4.89527e-9,10356.5
5.10673e-9,10230.4
5.3273300000000005e-9,10107.0
5.557450000000001e-9,9986.3
5.79752e-9,9868.140000000001
6.04796e-9,9752.509999999998
6.30921e-9,9639.36
6.58176e-9,9528.62
6.86607e-9,9420.25
7.1778100000000005e-9,9308.960000000001
7.50374e-9,9200.150000000001
7.84444e-9,9093.79
8.200640000000001e-9,8989.789999999999
8.57297e-9,8888.14
8.96225e-9,8788.75
9.36917e-9,8691.59
9.79461e-9,8596.6
1.0261e-8,8499.359999999999
1.07496e-8,8404.41
1.12615e-8,8311.67
1.17978e-8,8221.109999999999
1.23596e-8,8132.66
1.29481e-8,8046.2699999999995
1.3564700000000001e-8,7961.89
1.4240600000000001e-8,7875.79
1.49504e-8,7791.7699999999995
1.56954e-8,7709.8
1.64776e-8,7629.82
1.72988e-8,7551.79
1.81609e-8,7475.65
1.91064e-8,7398.18
2.0101e-8,7322.669999999999
2.11474e-8,7249.09
2.2248299999999998e-8,7177.360000000001
2.3406500000000002e-8,7107.46
2.46771e-8,7036.53
2.52522e-8,7006.2
2.5299999999999998e-8,7003.73
2.66735e-8,6935.52
2.81214e-8,6869.1
2.9648e-8,6804.43
3.13236e-8,6738.96
3.3094000000000005e-8,6675.28
3.4964300000000004e-8,6613.34
3.69404e-8,6553.09
3.91107e-8,6492.27
4.1408699999999994e-8,6433.16
4.38415e-8,6375.740000000001
4.6417400000000006e-8,6319.94
4.92486e-8,6263.73
5.22525e-8,6209.16
5.5439600000000004e-8,6156.16
5.8945499999999997e-8,6102.91
6.26734e-8,6051.25
6.66367e-8,6001.16
7.10008e-8,5950.92
7.56507e-8,5902.25
8.060520000000001e-8,5855.089999999999
8.60661e-8,5807.89
9.18965e-8,5762.22
9.83299e-8,5716.599999999999
1.05214e-7,5672.450000000001
1.12579e-7,5629.75
1.20716e-7,5587.17
1.2944e-7,5546.02
1.3908799999999998e-7,5505.06
1.49456e-7,5465.51
1.6093699999999998e-7,5426.21
1.73299e-7,5388.3
1.87006e-7,5350.6900000000005
2.01798e-7,5314.4
2.1821999999999998e-7,5278.43
2.36478e-7,5242.84
2.56264e-7,5208.56
2.7829299999999996e-7,5174.67
3.0285499999999997e-7,5141.200000000001
3.29585e-7,5108.98
3.5943499999999996e-7,5077.200000000001
3.92816e-7,5045.849999999999
4.30206e-7,5014.9400000000005
4.7215299999999993e-7,4984.48
5.181899999999999e-7,4955.15
5.69921e-7,4926.21
6.28142e-7,4897.67
6.93774e-7,4869.51
7.69515e-7,4841.12
8.55329e-7,4813.04
9.52724e-7,4785.2300000000005
1.0645899999999999e-6,4757.360000000001
1.26837e-6,4714.599999999999
1.6551899999999998e-6,4651.37
2.5022e-6,4552.74
3.9176e-6,4435.34
6.48716e-6,4270.13
1.14414e-5,4000.51
2.22573e-5,3461.8
6.189080000000001e-5,1544.06
6.9231e-5,1197.06
7.37378e-5,990.4350000000001
7.744170000000001e-5,826.8840000000001
8.0204e-5,709.8290000000001
8.248300000000002e-5,617.66
8.423260000000002e-5,550.149
8.60236e-5,484.68
8.72372e-5,442.82700000000006
8.846800000000001e-5,402.906
8.94019e-5,374.697
9.03446e-5,348.804
9.097140000000001e-5,333.62
9.14415e-5,323.812
9.180640000000001e-5,317.608
9.211880000000002e-5,313.716
9.24311e-5,311.793
9.25005e-5,311.73199999999997
9.26394e-5,312.128
9.281290000000001e-5,313.83
9.298640000000001e-5,317.334
9.31021e-5,321.027
9.321780000000001e-5,326.17199999999997
9.33335e-5,333.226
9.34203e-5,340.155
9.350700000000001e-5,348.91200000000003
9.359380000000001e-5,360.033
9.36516e-5,369.122
9.370950000000001e-5,379.894
9.37673e-5,392.743
9.38252e-5,408.195
9.386860000000002e-5,421.915
9.391190000000001e-5,437.903
9.395970000000001e-5,458.75899999999996
9.399150000000001e-5,475.033
9.40233e-5,493.669
9.40551e-5,515.231
9.40869e-5,540.505
9.411080000000001e-5,562.571
9.413460000000002e-5,588.044
9.415850000000001e-5,617.861
9.418020000000001e-5,649.816
9.41939e-5,673.047
9.42077e-5,699.093
9.422140000000002e-5,728.469
9.423510000000002e-5,761.793
9.42489e-5,799.808
9.42626e-5,843.4
9.42729e-5,880.382
9.42832e-5,921.607
9.429350000000001e-5,967.662
9.43038e-5,1019.2099999999999
9.43141e-5,1076.9899999999998
9.43244e-5,1141.83
9.43347e-5,1214.68
9.4345e-5,1296.57
9.43554e-5,1388.6499999999999
9.43657e-5,1492.2
9.4376e-5,1608.6100000000001
9.438280000000002e-5,1694.1200000000001
9.439280000000002e-5,1830.2099999999998
9.440250000000002e-5,1979.3799999999999
9.44123e-5,2145.58
9.44221e-5,2330.54
9.44318e-5,2536.08
9.444160000000001e-5,2764.14
9.445130000000002e-5,3016.76
9.44611e-5,3296.08
9.44709e-5,3604.2900000000004
9.44806e-5,3943.69
9.449040000000001e-5,4316.58
9.450010000000001e-5,4725.360000000001
9.45099e-5,5172.38
9.45197e-5,5659.97
9.45294e-5,6190.46
9.453920000000001e-5,6766.04
9.4549e-5,7388.84
9.455870000000002e-5,8060.790000000001
9.45685e-5,8783.630000000001
9.45782e-5,9558.91
9.458800000000001e-5,10387.800000000001
9.45993e-5,11413.7
9.46088e-5,12339.199999999999
9.461840000000001e-5,13317.4
9.46327e-5,14882.800000000001
9.464700000000002e-5,16562.7
9.46613e-5,18351.4
9.46778e-5,20534.7
9.469860000000001e-5,23454.3
9.472640000000002e-5,27548.6
9.477610000000001e-5,35001.9
9.480040000000001e-5,38429.5
9.481990000000001e-5,40944.700000000004
9.48402e-5,43281.1
9.485870000000001e-5,45077.99999999999
9.48726e-5,46190.3
9.488650000000001e-5,47081.0
9.490040000000002e-5,47735.8
9.491750000000001e-5,48203.2
9.492960000000001e-5,48300.9
9.494300000000002e-5,48183.299999999996
9.49568e-5,47812.299999999996
9.497070000000002e-5,47193.899999999994
9.49846e-5,46338.0
9.499850000000001e-5,45258.5
9.5017e-5,43501.5
9.502900000000001e-5,42185.4
9.5048e-5,39873.0
9.50706e-5,36823.4
9.509660000000001e-5,33036.8
9.514980000000001e-5,25066.8
9.517350000000001e-5,21669.9
9.518970000000001e-5,19469.5
9.520590000000002e-5,17388.8
9.521810000000002e-5,15915.5
9.52315e-5,14377.7
9.524220000000001e-5,13226.6
9.525290000000001e-5,12141.1
9.526360000000001e-5,11121.6
9.527430000000002e-5,10167.900000000001
9.5285e-5,9279.19
9.529570000000001e-5,8454.09
9.530640000000001e-5,7690.87
9.53154e-5,7097.48
9.53262e-5,6433.66
9.533350000000001e-5,6022.68
9.53407e-5,5635.94
9.53479e-5,5272.53
9.535520000000001e-5,4931.54
9.53624e-5,4612.02
9.536960000000002e-5,4313.030000000001
9.53768e-5,4033.59
9.538410000000001e-5,3772.77
9.53913e-5,3529.62
9.53985e-5,3303.21
9.540580000000001e-5,3092.6200000000003
9.5413e-5,2896.96
9.542020000000002e-5,2715.35
9.54275e-5,2546.94
9.54356e-5,2372.25
9.544370000000001e-5,2212.12
9.54519e-5,2065.48
9.546e-5,1931.3100000000002
9.546810000000001e-5,1808.64
9.547630000000001e-5,1696.57
9.54844e-5,1594.22
9.549250000000002e-5,1500.81
9.550070000000001e-5,1415.57
9.55088e-5,1337.81
9.551690000000002e-5,1266.87
9.552510000000001e-5,1202.1399999999999
9.55332e-5,1143.0800000000002
9.554130000000002e-5,1089.15
9.555220000000001e-5,1024.43
9.5563e-5,966.993
9.557390000000001e-5,915.939
9.55847e-5,870.466
9.55956e-5,829.87
9.560820000000001e-5,787.851
9.562270000000001e-5,745.845
9.563710000000001e-5,709.232
9.565160000000001e-5,677.122
9.566610000000001e-5,648.778
9.56805e-5,623.593
9.570220000000001e-5,590.669
9.572390000000001e-5,562.42
9.574560000000001e-5,537.86
9.57673e-5,516.25
9.578900000000001e-5,497.03999999999996
9.58179e-5,474.449
9.584470000000001e-5,456.055
9.588150000000002e-5,433.864
9.59184e-5,414.628
9.59553e-5,397.778
9.60045e-5,378.309
9.60536e-5,361.602
9.61028e-5,347.11699999999996
9.615200000000001e-5,334.446
9.620110000000002e-5,323.276
9.62646e-5,310.677
9.63425e-5,297.5
9.642030000000001e-5,286.301
9.649810000000002e-5,276.666
9.657600000000002e-5,268.288
9.66927e-5,257.58299999999997
9.68095e-5,248.62
9.693210000000002e-5,240.644
9.709960000000001e-5,231.55800000000002
9.7267e-5,224.036
9.74345e-5,217.69699999999997
9.768560000000001e-5,209.818
9.793680000000001e-5,203.34799999999998
9.8188e-5,197.966
9.848380000000001e-5,192.742
9.87797e-5,188.463
9.922340000000001e-5,183.471
9.969680000000002e-5,179.718
0.00010015499999999999,177.442
0.000100555,176.465
0.00010079100000000002,176.311
0.000101294,177.02
0.00010175300000000001,178.887
0.00010215200000000001,181.472
0.00010258100000000001,185.259
0.00010302500000000001,190.304
0.00010351300000000001,197.22299999999998
0.00010395700000000002,204.797
0.00010440100000000002,213.64000000000001
0.000104859,224.16299999999998
0.00010534699999999999,236.98000000000002
0.00010583600000000001,251.551
0.00010635300000000002,268.988
0.00010688599999999999,289.15799999999996
0.000107418,311.723
0.000107951,336.813
0.000108483,364.564
0.000109016,395.125
0.000109548,428.65000000000003
0.000110081,465.308
0.000110613,505.277
0.000111146,548.746
0.00011167800000000001,595.92
0.000112211,647.145
0.000112743,702.477
0.000113276,762.141
0.00011380900000000001,826.4689999999999
0.00011434100000000001,895.745
0.00011487400000000001,970.273
0.00011540600000000001,1050.38
0.000115939,1136.43
0.000116471,1228.79
0.000117004,1327.8600000000001
0.00011756599999999999,1440.18
0.000118187,1574.1799999999998
0.000118807,1719.3799999999999
0.00011942900000000001,1876.83
0.00012004999999999999,2047.4
0.00012067200000000001,2232.12
0.00012131099999999999,2437.8199999999997
0.00012194900000000001,2661.04
0.000122576,2898.82
0.00012318,3146.89
0.00012378400000000002,3415.12
0.000124423,3722.5299999999997
0.000125079,4066.25
0.000125735,4440.98
0.000126321,4804.89
0.000126908,5198.629999999999
0.00012752300000000002,5646.87
0.000128197,6182.45
0.00012887,6770.52
0.000129474,7347.179999999999
0.00013004300000000002,7937.839999999999
0.000130612,8579.029999999999
0.000131073,9138.63
0.000131534,9737.730000000001
0.000131994,10379.6
0.000132455,11068.1
0.00013292200000000003,11817.9
0.00013339000000000002,12624.5
0.000133857,13493.0
0.000134324,14429.4
0.000134798,15454.9
0.000135271,16564.600000000002
0.00013574500000000002,17766.9
0.000136219,19071.5
0.000136699,20510.3
0.00013717999999999998,22078.4
0.00013766,23790.7
0.00013814100000000002,25663.9
0.000138625,27736.2
0.00013911000000000001,30014.8
0.000139595,32525.7
0.000140079,35290.7
0.00014049400000000001,37886.799999999996
0.00014090800000000003,40734.0
0.00014132199999999999,43854.7
0.000141736,47282.6
0.00014215,51058.700000000004
0.00014256500000000001,55237.2
0.000142979,59846.8
0.000143289,63633.8
0.000143606,67830.1
0.000143925,72426.8
0.000144245,77425.5
0.00014456400000000002,82901.6
0.000144884,88902.5
0.000145203,95491.7
0.00014552300000000002,102745.0
0.000145842,110752.0
0.000146162,119617.0
0.000146481,129463.0
0.000146801,140433.0
0.000147085,151268.0
0.000147369,163272.0
0.000147653,176613.0
0.00014784200000000003,186346.0
0.000148032,196831.0
0.000148221,208143.0
0.000148481,225211.0
0.00014873000000000002,243359.0
0.00014897800000000002,263596.0
0.000149144,278406.0
0.00014931000000000002,294398.0
0.00014947500000000001,311698.0
0.000149641,330450.0
0.000149854,356955.0
0.000150067,386521.0
0.000150209,408152.0
0.00015035099999999998,431503.0
0.00015049300000000002,456771.0
0.000150635,484189.0
0.00015077700000000002,514006.0
0.000150926,548193.0
0.000151075,585681.0
0.00015122400000000001,626889.0
0.00015137400000000002,672312.0
0.000151523,722537.0
0.000151639,765349.0
0.000151771,818805.0
0.00015190400000000001,877701.0000000001
0.000152036,942780.9999999999
0.00015215,1.0041500000000001e6
0.00015224500000000002,1.0597e6
0.000152339,1.1197e6
0.000152434,1.18463e6
0.00015252900000000002,1.25501e6
0.000152623,1.33145e6
0.000152718,1.41462e6
0.00015281300000000002,1.5053e6
0.000152907,1.60438e6
0.000153002,1.71287e6
0.00015309700000000001,1.83193e6
0.00015319100000000003,1.96288e6
0.000153286,2.10726e6
0.000153381,2.26682e6
0.000153475,2.44358e6
0.000153546,2.58883e6
0.00015361700000000002,2.74616e6
0.000153688,2.91682e6
0.000153759,3.10216e6
0.00015383,3.3037e6
0.00015390100000000002,3.52309e6
0.000153972,3.76217e6
0.000154043,4.0229100000000005e6
0.000154114,4.30748e6
0.000154185,4.61814e6
0.000154256,4.95734e6
0.000154327,5.32752e6
0.000154398,5.73117e6
0.000154469,6.17062e6
0.00015454000000000002,6.64794e6
0.00015461100000000003,7.16467e6
0.000154682,7.72161e6
0.00015475300000000001,8.318440000000001e6
0.000154839,9.08462e6
0.000154924,9.89864e6
0.000155217,1.28521e7
0.000155309,1.3714599999999998e7
0.000155388,1.4364300000000002e7
0.000155459,1.48665e7
0.00015553,1.52644e7
0.000155588,1.55014e7
0.000155646,1.5650599999999998e7
0.000155711,1.57086e7
0.00015577,1.56613e7
0.00015582800000000003,1.55226e7
0.000155886,1.5297e7
0.000155944,1.49913e7
0.000156022,1.4474800000000002e7
0.000156086,1.39723e7
0.00015615000000000003,1.34159e7
0.000156277,1.22007e7
0.000156469,1.03153e7
0.000156561,9.44766e6
0.00015664700000000002,8.69159e6
0.000156732,7.98634e6
0.000156817,7.33539e6
0.00015690200000000002,6.73928e6
0.000156988,6.19647e6
0.000157073,5.70411e6
0.00015715800000000002,5.25863e6
0.000157243,4.8561e6
0.000157328,4.49256e6
0.000157414,4.1641399999999995e6
0.00015747500000000002,3.94674e6
0.000157541,3.72955e6
0.000157608,3.52847e6
0.000157674,3.34214e6
0.00015777300000000002,3.08758e6
0.000157873,2.85962e6
0.000157972,2.65496e6
0.00015805700000000002,2.49591e6
0.000158142,2.3503e6
0.000158228,2.21674e6
0.000158313,2.0939999999999998e6
0.000158398,1.98099e6
0.000158483,1.87675e6
0.00015856800000000002,1.78043e6
0.00015865400000000002,1.69128e6
0.000158748,1.5998e6
0.000158843,1.51552e6
0.00015893800000000002,1.43773e6
0.00015908,1.33183e6
0.00015922200000000001,1.23729e6
0.000159364,1.15257e6
0.000159478,1.09068e6
0.000159612,1.02443e6
0.000159745,964089.0000000001
0.000159879,908967.0
0.000160013,858501.0
0.000160147,812220.0
0.00016028,769697.0
0.000160414,730537.0
0.000160561,691011.0
0.00016072,651611.0
0.00016088000000000002,615562.0
0.00016104000000000002,582492.0
0.00016120000000000002,552089.0
0.00016135900000000002,524080.0
0.000161599,486033.0
0.000161759,463008.00000000006
0.000161972,434863.99999999994
0.00016218500000000002,409310.0
0.000162398,386036.0
0.000162611,364776.0
0.000162824,345302.0
0.00016303700000000002,327418.0
0.00016325,310955.0
0.00016356900000000002,288603.0
0.00016388900000000002,268694.0
0.000164208,250881.0
0.00016452800000000002,234876.0
0.00016484700000000003,220439.0
0.000165167,207369.0
0.000165522,194246.0
0.000165877,182430.0
0.00016623200000000002,171736.0
0.000166587,161988.0
0.000166942,153095.0
0.000167297,144958.0
0.00016753400000000003,139907.0
0.000168007,130628.00000000001
0.00016848,122313.0
0.00016895400000000002,114848.0
0.000169427,108095.99999999999
0.0001699,101935.0
0.00017037400000000002,96327.4
0.000170847,91225.90000000001
0.00017132,86591.1
0.00017161500000000002,84065.0
0.000171733,83408.20000000001
0.00017179199999999998,83293.59999999999
0.000171885,83600.8
0.000171946,84249.1
0.00017200800000000002,85311.8
0.000172088,87290.2
0.000172219,91115.5
0.000172289,92701.9
0.00017234400000000003,93343.4
0.00017237100000000002,93412.2
0.000172425,93004.8
0.00017248000000000003,91879.6
0.000172545,89722.3
0.000172635,85830.8
0.000172718,82114.99999999999
0.000172792,79127.3
0.00017285100000000002,77185.4
0.000172914,75498.2
0.000172978,74202.3
0.00017304200000000001,73212.2
0.000173169,71806.40000000001
0.000173384,70127.2
0.000174028,65930.5
0.000174706,61987.4
0.00017543,58196.700000000004
0.000176176,54671.0
0.000176922,51478.9
0.000177824,48005.00000000001
0.000178726,44892.6
0.000179671,41964.9
0.00018061700000000002,39328.9
0.00018138300000000002,37382.4
0.000182148,35585.4
0.00018324000000000001,33254.299999999996
0.000183623,32531.3
