E(MeV),xs(mb)
1.0e-11,121699.0
1.03223e-11,119811.0
1.06549e-11,117955.00000000001
1.0998399999999998e-11,116127.0
1.13527e-11,114328.99999999999
1.1718599999999999e-11,112559.00000000001
1.2096199999999998e-11,110819.0
1.24861e-11,109105.00000000001
1.2888399999999999e-11,107420.0
1.3303799999999998e-11,105760.00000000001
1.37325e-11,104129.0
1.41751e-11,102522.0
1.4631799999999997e-11,100942.0
1.51034e-11,99386.9
1.5590099999999998e-11,97857.2
1.6092599999999998e-11,96351.6
1.66111e-11,94870.7
1.71465e-11,93413.1
1.7699e-11,91979.5
1.8269399999999998e-11,90568.6
1.88581e-11,89180.8
1.94659e-11,87815.0
2.00931e-11,86471.7
2.0740699999999998e-11,85149.79999999999
2.1408999999999998e-11,83849.5
2.2099099999999997e-11,82570.0
2.28111e-11,81311.59999999999
2.3546399999999998e-11,80073.2
2.4305099999999997e-11,78855.3
2.50884e-11,77656.90000000001
2.5896799999999997e-11,76478.2
2.67315e-11,75318.5
2.75928e-11,74177.9
2.8482199999999998e-11,73055.7
2.93999e-11,71952.1
3.0347499999999995e-11,70866.2
3.13253e-11,69798.40000000001
3.2335e-11,68747.9
3.33769e-11,67714.8
3.44526e-11,66698.5
3.55627e-11,65699.1
3.67089e-11,64715.9
3.7891799999999997e-11,63749.200000000004
3.9113e-11,62798.299999999996
4.0373400000000003e-11,61863.200000000004
4.1674599999999996e-11,60943.50000000001
4.3017399999999996e-11,60039.2
4.440389999999999e-11,59149.700000000004
4.58347e-11,58275.2
4.7311899999999994e-11,57415.1
4.883639999999999e-11,56569.5
5.0410399999999995e-11,55737.9
5.20348e-11,54920.299999999996
5.37119e-11,54116.299999999996
5.54426e-11,53326.0
5.7229499999999995e-11,52548.8
5.907359999999999e-11,51784.8
6.09775e-11,51033.600000000006
6.29424e-11,50295.3
6.497099999999999e-11,49569.299999999996
6.70645e-11,48855.700000000004
6.9226e-11,48154.2
7.145659999999999e-11,47464.8
7.37596e-11,46787.0
7.62978e-11,46076.9
7.89233e-11,45379.8
8.163909999999999e-11,44695.4
8.444839999999998e-11,44023.6
8.73544e-11,43364.200000000004
9.03604e-11,42716.9
9.34698e-11,42081.600000000006
9.66862e-11,41458.1
1.0001400000000001e-10,40846.1
1.03455e-10,40245.6
1.0701499999999999e-10,39656.3
1.1069800000000001e-10,39078.0
1.1450700000000001e-10,38510.6
1.18447e-10,37953.9
1.22523e-10,37407.6
1.26739e-10,36871.8
1.31101e-10,36346.0
1.35612e-10,35830.3
1.40278e-10,35324.4
1.45106e-10,34828.2
1.5009900000000002e-10,34341.5
1.55264e-10,33864.1
1.6060700000000003e-10,33396.0
1.66133e-10,32936.8
1.7185e-10,32486.600000000002
1.7776400000000002e-10,32045.2
1.8388100000000002e-10,31612.300000000003
1.9020800000000002e-10,31187.9
1.96754e-10,30771.7
2.03524e-10,30363.8
2.10528e-10,29963.8
2.18232e-10,29547.6
2.26221e-10,29140.0
2.34499e-10,28741.0
2.43083e-10,28350.399999999998
2.51979e-10,27968.1
2.61203e-10,27593.899999999998
2.70762e-10,27227.600000000002
2.80673e-10,26869.100000000002
2.90945e-10,26518.3
3.0159500000000003e-10,26174.9
3.1263200000000005e-10,25838.899999999998
3.24076e-10,25510.0
3.3593600000000005e-10,25188.3
3.48233e-10,24873.4
3.60977e-10,24565.399999999998
3.7498100000000004e-10,24246.4
3.8952900000000004e-10,23934.7
4.04641e-10,23630.100000000002
4.20339e-10,23332.4
4.36646e-10,23041.6
4.53585e-10,22757.399999999998
4.71182e-10,22479.8
4.89462e-10,22208.399999999998
5.08451e-10,21943.3
5.28176e-10,21684.199999999997
5.498300000000001e-10,21417.199999999997
5.72367e-10,21156.600000000002
5.95833e-10,20902.3
6.202560000000001e-10,20654.1
6.45685e-10,20411.800000000003
6.72152e-10,20175.399999999998
6.99708e-10,19944.7
7.2839e-10,19719.5
7.598550000000001e-10,19488.2
7.92678e-10,19262.7
8.2692e-10,19042.9
8.62641e-10,18828.6
8.999050000000001e-10,18619.600000000002
9.38778e-10,18415.8
9.79331e-10,18217.1
1.0238000000000001e-9,18013.8
1.07028e-9,17815.7
1.1188800000000002e-9,17622.7
1.16969e-9,17434.8
1.2228000000000002e-9,17251.6
1.27832e-9,17073.2
1.3391900000000002e-9,16891.2
1.40296e-9,16714.0
1.4697700000000002e-9,16541.600000000002
1.53975e-9,16373.7
1.61307e-9,16210.3
1.6934700000000002e-9,16044.099999999999
1.7778600000000001e-9,15882.5
1.86647e-9,15725.3
1.9594800000000004e-9,15572.5
2.06148e-9,15417.400000000001
2.1688e-9,15266.800000000001
2.28171e-9,15120.4
2.4004900000000003e-9,14978.199999999999
2.53081e-9,14834.300000000001
2.66818e-9,14694.7
2.81303e-9,14559.1
2.9657300000000003e-9,14427.5
3.13335e-9,14294.7
3.3104300000000005e-9,14165.9
3.49753e-9,14040.999999999998
3.70303e-9,13915.2
3.92059e-9,13793.3
4.15094e-9,13675.3
4.404130000000001e-9,13556.699999999999
4.67276e-9,13441.9
4.95777e-9,13330.800000000001
5.27129e-9,13219.4
5.60466e-9,13111.699999999999
5.9590800000000005e-9,13007.5
6.349350000000001e-9,12903.3
6.765170000000001e-9,12802.7
7.223510000000001e-9,12702.199999999999
7.712860000000001e-9,12605.3
8.25281e-9,12508.699999999999
8.83056e-9,12415.6
9.44875e-9,12325.699999999999
1.0131600000000001e-8,12236.499999999998
1.08639e-8,12150.4
1.1673700000000001e-8,12065.1
1.25704e-8,11980.599999999999
1.3536e-8,11899.3
1.4606600000000001e-8,11819.0
1.57619e-8,11741.8
1.70447e-8,11665.6
1.84708e-8,11590.6
2.00162e-8,11518.699999999999
2.17368e-8,11447.9
2.3655300000000002e-8,11378.5
2.52522e-8,11326.9
2.5299999999999998e-8,11325.400000000001
2.75913e-8,11259.6
3.01538e-8,11195.3
3.3024e-8,11132.4
3.6244000000000003e-8,11071.0
3.98622e-8,11011.2
4.39344e-8,10953.0
4.852490000000001e-8,10896.5
5.37087e-8,10841.7
5.95722e-8,10788.599999999999
6.63555e-8,10736.2
7.40679e-8,10685.6
8.302699999999999e-8,10636.000000000002
9.32671e-8,10588.3
1.05214e-7,10541.7
1.1894199999999998e-7,10497.099999999999
1.3503099999999999e-7,10453.699999999999
1.53947e-7,10411.6
1.76256e-7,10370.900000000001
2.02653e-7,10331.5
2.3448699999999997e-7,10293.1
2.7247e-7,10256.099999999999
3.18621e-7,10220.199999999999
3.74961e-7,10185.3
4.44071e-7,10151.4
5.292639999999999e-7,10118.7
6.36162e-7,10086.5
7.71142e-7,10054.8
9.446999999999998e-7,10023.1
1.2161599999999998e-6,9985.47
2.1750999999999997e-6,9900.81
5.29472e-6,9746.08
1.43162e-5,9437.68
3.0936e-5,8965.18
5.1227e-5,8464.22
7.37378e-5,7977.7
9.826700000000001e-5,7512.1900000000005
0.000124685,7070.7300000000005
0.00015277400000000003,6655.0599999999995
0.00018329200000000002,6253.07
0.00021753800000000003,5851.58
0.000254645,5461.99
0.000296491,5066.150000000001
0.00033226900000000005,4760.95
0.000344479,4678.63
0.00034775900000000006,4669.7
0.00035029,4678.18
0.000352132,4706.15
0.000353333,4747.830000000001
0.000354074,4792.28
0.00035475500000000006,4855.98
0.00035529500000000005,4932.87
0.000355696,5014.38
0.00035599599999999997,5096.36
0.00035629600000000003,5204.51
0.00035649700000000005,5296.929999999999
0.000356697,5411.7300000000005
0.000356877,5540.62
0.00035705700000000003,5702.38
0.000357192,5852.599999999999
0.000357328,6035.929999999999
0.000357418,6181.82
0.00035751800000000003,6372.4
0.00035761800000000003,6601.320000000001
0.000357693,6805.63
0.000357768,7046.48
0.000357843,7335.78
0.000357893,7564.429999999999
0.000357943,7831.0
0.000357993,8147.220000000001
0.00035803100000000003,8426.79
0.000358068,8753.16
0.000358106,9138.92
0.00035813100000000003,9436.98
0.00035815600000000005,9774.630000000001
0.000358181,10159.0
0.000358206,10598.5
0.000358228,11036.0
0.000358247,11456.5
0.000358265,11924.699999999999
0.000358284,12446.699999999999
0.00035830300000000003,13029.5
0.000358322,13680.699999999999
0.00035834100000000003,14408.7
0.00035835900000000004,15223.1
0.000358378,16134.0
0.000358397,17152.9
0.000358416,18292.1
0.00035843400000000003,19565.1
0.000358453,20986.600000000002
0.00035847200000000003,22572.3
0.00035848600000000004,23879.5
0.00035850000000000004,25296.1
0.000358514,26830.1
0.00035853100000000004,28876.6
0.00035855,31342.1
0.00035856900000000004,34071.2
0.000358588,37087.0
0.000358606,40412.2
0.00035862500000000006,44071.2
0.00035864400000000003,48088.2
0.000358663,52488.299999999996
0.00035868200000000003,57295.9
0.00035870000000000005,62535.9
0.000358719,68231.8
0.000358738,74408.1
0.000358757,81085.6
0.00035877500000000003,88285.2
0.000358794,96024.7
0.00035881300000000004,104321.0
0.000358832,113186.00000000001
0.000358851,122630.0
0.00035886900000000005,132658.0
0.000358894,146942.0
0.000358919,162257.0
0.00035894400000000004,178413.0
0.000358969,195512.0
0.00035900200000000003,219672.0
0.000359043,251772.99999999997
0.000359096,294674.0
0.000359194,377004.0
0.000359244,416801.0
0.000359287,448184.0
0.000359321,469901.00000000006
0.000359353,487894.0
0.00035938500000000004,502870.0
0.000359417,514499.0
0.000359449,522522.0
0.00035947800000000004,526572.0
0.0003595,527433.0
0.000359528,525859.0
0.000359558,521067.00000000006
0.00035958800000000004,512757.00000000006
0.000359614,503254.99999999994
0.000359644,489196.0
0.00035968100000000004,468412.0
0.00035971600000000005,445892.99999999994
0.00035975600000000003,416342.00000000006
0.000359804,378182.0
0.000359927,275187.0
0.00035996800000000006,242522.0
0.000360009,211573.0
0.000360037,191071.0
0.00036006600000000003,171763.0
0.00036009400000000004,153729.0
0.000360113,142440.0
0.000360132,131750.0
0.000360151,121661.0
0.000360173,110725.99999999999
0.000360192,102031.0
0.00036021100000000004,93900.5
0.00036023,86320.09999999999
0.000360248,79274.2
0.000360267,72743.09999999999
0.000360286,66706.3
0.000360305,61141.3
0.000360323,56025.0
0.000360342,51333.0
0.000360361,47041.2
0.00036038000000000004,43123.899999999994
0.000360399,39557.5
0.00036041700000000003,36317.3
0.000360436,33379.8
0.00036045500000000003,30721.9
0.000360474,28321.5
0.000360492,26157.300000000003
0.000360511,24209.399999999998
0.00036053,22458.5
0.00036054900000000005,20886.9
0.000360567,19499.899999999998
0.000360585,18295.2
0.00036060300000000003,17210.7
0.000360621,16235.1
0.00036063800000000004,15357.6
0.000360656,14568.6
0.000360674,13858.900000000001
0.000360692,13220.5
0.000360704,12830.8
0.000360728,12128.4
0.00036075100000000003,11516.699999999999
0.000360775,10982.7
0.000360799,10515.300000000001
0.000360823,10105.0
0.000360847,9743.42
0.00036088200000000003,9277.26
0.000360918,8885.43
0.00036095400000000003,8547.11
0.000360992,8247.9
0.000361042,7911.28
0.00036109200000000003,7629.1
0.000361142,7388.219999999999
0.000361217,7084.86
0.000361292,6833.34
0.000361372,6607.490000000001
0.000361462,6393.360000000001
0.000361582,6157.7
0.00036170300000000006,5965.14
0.00036182300000000005,5805.259999999999
0.000361973,5640.4800000000005
0.00036212300000000006,5505.51
0.000362323,5360.12
0.000362523,5244.150000000001
0.000362804,5117.18
0.000363164,4995.79
0.000363625,4884.98
0.000364185,4791.33
0.000364846,4715.38
0.00036560700000000005,4654.969999999999
0.00036682800000000003,4591.08
0.00036887500000000006,4527.14
0.000372715,4459.51
0.000380816,4372.3099999999995
0.000407555,4153.08
0.000519666,3310.73
0.0005734980000000001,2897.29
0.0006184560000000001,2533.9900000000002
0.000620759,2524.82
0.0006218490000000001,2531.4
0.000622516,2549.57
0.000622894,2575.81
0.000623046,2596.3500000000004
0.000623175,2625.7000000000003
0.000623281,2666.3199999999997
0.00062336,2714.0499999999997
0.0006234130000000001,2758.4399999999996
0.000623466,2816.71
0.000623519,2893.14
0.000623565,2977.14
0.000623603,3063.23
0.00062364,3166.84
0.0006236780000000001,3291.04
0.0006237160000000001,3439.2599999999998
0.000623745,3568.45
0.000623773,3715.0
0.000623801,3880.7200000000003
0.00062383,4067.52
0.000623858,4277.38
0.000623887,4512.330000000001
0.0006239150000000001,4774.4400000000005
0.000623943,5065.75
0.0006239720000000001,5388.3099999999995
0.0006240000000000001,5744.08
0.000624029,6134.98
0.000624057,6562.68
0.000624085,7028.75
0.000624114,7534.4800000000005
0.0006241420000000001,8080.9
0.000624173,8709.339999999998
0.0006242040000000001,9407.06
0.000624235,10154.9
0.0006242660000000001,10951.900000000001
0.0006243080000000001,12087.699999999999
0.0006243560000000001,13500.9
0.0006244130000000001,15276.400000000001
0.000624487,17713.2
0.000624606,21714.600000000002
0.000624674,23867.3
0.000624727,25388.600000000002
0.000624773,26545.100000000002
0.000624818,27534.9
0.00062486,28281.399999999998
0.0006249030000000001,28853.0
0.0006249430000000001,29206.6
0.000624988,29384.899999999998
0.000625,29393.3
0.000625041,29292.1
0.000625084,28983.1
0.000625119,28574.600000000002
0.000625153,28050.5
0.0006252,27143.8
0.000625245,26081.4
0.000625291,24864.1
0.0006253470000000001,23193.800000000003
0.0006254240000000001,20687.899999999998
0.000625557,16239.9
0.000625613,14412.9
0.000625651,13252.5
0.000625689,12148.8
0.0006257270000000001,11108.800000000001
0.0006257670000000001,10090.8
0.000625807,9152.4
0.000625833,8571.92
0.0006258600000000001,8027.61
0.0006258860000000001,7519.24
0.000625913,7046.21
0.000625939,6607.75
0.0006259680000000001,6175.07
0.0006259960000000001,5779.37
0.000626024,5418.910000000001
0.000626053,5091.85
0.000626081,4796.2300000000005
0.00062611,4530.02
0.000626138,4291.17
0.000626166,4077.64
0.000626195,3887.3700000000003
0.000626223,3718.41
0.0006262520000000001,3568.8300000000004
0.0006262800000000001,3436.82
0.0006263180000000001,3285.1499999999996
0.000626356,3157.84
0.0006263940000000001,3051.44
0.000626431,2962.83
0.000626469,2889.2799999999997
0.000626526,2801.98
0.000626577,2742.14
0.0006266420000000001,2685.6800000000003
0.000626706,2644.65
0.0006268030000000001,2602.44
0.0006269310000000001,2567.62
0.00062706,2545.67
0.000627363,2514.97
0.000627878,2486.49
0.000628514,2466.02
0.0006297259999999999,2442.5
0.000633574,2397.51
0.0006613550000000001,2130.15
0.000679252,1943.74
0.0006942630000000001,1773.34
0.000707454,1610.3700000000001
0.0007149120000000001,1515.59
0.000717573,1487.7
0.000718966,1481.4
0.000719695,1485.48
0.0007201460000000001,1493.91
0.000720455,1504.51
0.000720771,1522.53
0.000721009,1544.6100000000001
0.000721167,1567.29
0.000721286,1592.3700000000001
0.0007213650000000001,1615.72
0.000721444,1647.49
0.0007215040000000001,1679.3700000000001
0.000721563,1720.97
0.000721611,1763.5700000000002
0.0007216580000000001,1816.9299999999998
0.000721694,1865.71
0.0007217290000000001,1923.6
0.000721765,1992.29
0.000721801,2073.72
0.000721836,2170.13
0.000721872,2284.05
0.0007218960000000001,2371.12
0.000721919,2468.18
0.0007219430000000001,2576.21
0.0007219730000000001,2728.34
0.000722003,2901.5499999999997
0.0007220320000000001,3098.2599999999998
0.0007220620000000001,3321.05
0.000722092,3572.66
0.0007221110000000001,3757.83
0.000722131,3957.96
0.0007221510000000001,4173.969999999999
0.000722171,4406.780000000001
0.0007221910000000001,4657.320000000001
0.00072221,4926.54
0.0007222400000000001,5367.48
0.000722269,5847.2699999999995
0.000722297,6357.11
0.000722326,6915.14
0.000722354,7523.799999999999
0.000722382,8185.44
0.00072241,8902.08
0.000722439,9675.61
0.000722467,10507.4
0.000722495,11398.5
0.000722523,12349.5
0.000722551,13360.6
0.000722581,14469.9
0.0007226200000000001,16073.599999999999
0.0007226600000000001,17786.9
0.000722699,19601.9
0.000722759,22490.199999999997
0.0007228180000000001,25532.6
0.000722975,33791.7
0.000723029,36536.8
0.000723074,38630.5
0.0007231280000000001,40949.7
0.000723159,42173.99999999999
0.0007232100000000001,43878.899999999994
0.0007232510000000001,45006.00000000001
0.000723296,45945.799999999996
0.000723338,46528.5
0.000723377,46809.9
0.0007234,46852.9
0.0007234460000000001,46672.1
0.000723491,46140.4
0.000723531,45393.4
0.000723565,44576.0
0.0007236090000000001,43252.7
0.00072365,41789.1
0.000723698,39859.5
0.000723759,37036.9
0.0007238120000000001,34443.299999999996
0.0007239270000000001,28416.7
0.000724006,24264.399999999998
0.000724065,21278.800000000003
0.000724115,18922.9
0.000724154,17143.8
0.0007241939999999999,15469.4
0.0007242320000000001,13944.300000000001
0.000724268,12634.300000000001
0.000724304,11419.8
0.00072433,10571.5
0.000724357,9776.48
0.000724384,9033.83
0.0007244100000000001,8342.35
0.0007244370000000001,7700.64
0.0007244640000000001,7106.93
0.0007244910000000001,6559.38
0.0007245180000000001,6038.08
0.000724548,5529.4
0.000724578,5069.24
0.000724598,4787.87
0.0007246170000000001,4525.719999999999
0.000724637,4281.83
0.0007246570000000001,4055.27
0.000724677,3845.1
0.0007246970000000001,3650.41
0.000724726,3385.4500000000003
0.000724756,3150.4
0.000724786,2942.48
0.0007248150000000001,2759.03
0.0007248360000000001,2643.86
0.000724858,2533.89
0.0007248910000000001,2387.58
0.000724923,2261.23
0.000724956,2152.3599999999997
0.0007249880000000001,2058.71
0.0007250210000000001,1978.28
0.000725054,1909.26
0.0007250860000000001,1850.08
0.00072513,1784.06
0.000725174,1730.21
0.000725213,1689.83
0.000725273,1641.3
0.0007253320000000001,1603.8300000000002
0.000725411,1566.1000000000001
0.0007254900000000001,1537.96
0.0007256090000000001,1507.04
0.000725728,1484.3
0.000725965,1451.7199999999998
0.000726282,1421.86
0.000726725,1392.94
0.000727295,1366.9199999999998
0.0007282250000000001,1336.91
0.000729519,1305.7
0.000731469,1266.7600000000002
0.0007414,1085.7
0.00074594,998.274
0.0007504800000000001,905.662
0.00075502,807.217
0.0007584250000000001,729.143
0.00076183,647.304
0.0007652350000000001,561.755
0.0007692080000000001,457.845
0.00077545,291.021
0.000777188,246.17499999999998
0.0007784290000000001,215.48
0.0007794220000000001,192.066
0.0007802740000000001,173.172
0.000780912,159.85799999999998
0.000781551,147.405
0.000782189,135.969
0.0007826150000000001,129.00799999999998
0.0007830580000000001,122.391
0.000783519,116.266
0.000783865,112.233
0.000784211,108.72900000000001
0.0007845570000000001,105.80099999999999
0.00078492,103.398
0.0007852930000000001,101.71600000000001
0.0007856650000000001,100.899
0.000785842,100.837
0.0007861080000000001,101.166
0.0007863740000000001,102.033
0.00078664,103.47200000000001
0.0007869060000000001,105.521
0.000787172,108.223
0.0007874380000000001,111.621
0.0007877040000000001,115.761
0.00078797,120.695
0.000788237,126.47600000000001
0.0007885030000000001,133.162
0.000788769,140.81699999999998
0.000789035,149.50699999999998
0.0007892120000000001,155.912
0.00078946,165.75
0.0007897080000000001,176.665
0.000789957,188.726
0.000790205,202.01
0.0007904710000000001,217.692
0.000790737,234.98199999999997
0.000791003,253.996
0.000791269,274.864
0.000791535,297.723
0.000791801,322.724
0.000792067,350.031
0.000792333,379.819
0.000792599,412.283
0.000792865,447.633
0.000793131,486.099
0.000793397,527.9300000000001
0.000793663,573.402
0.000793929,622.814
0.000794195,676.496
0.000794461,734.81
0.000794727,798.153
0.000794993,866.963
0.000795259,941.723
0.000795525,1022.9699999999999
0.000795791,1111.29
0.000796057,1207.3400000000001
0.000796323,1311.84
0.000796589,1425.6200000000001
0.000796855,1549.56
0.000797121,1684.69
0.0007973790000000001,1827.0
0.000797618,1970.8300000000002
0.0007978570000000001,2126.6600000000003
0.000798097,2295.61
0.0007983360000000001,2478.9900000000002
0.0007985760000000001,2678.21
0.000798815,2894.8900000000003
0.0007990540000000001,3130.83
0.000799294,3388.06
0.0007995330000000001,3668.8900000000003
0.000799773,3975.91
0.0008000120000000001,4312.08
0.000800251,4680.780000000001
0.0008004910000000001,5085.860000000001
0.0008007300000000001,5531.74
0.0008009700000000001,6023.52
0.000801202,6550.169999999999
0.0008014200000000001,7094.56
0.000801638,7693.349999999999
0.0008018570000000001,8353.34
0.000802075,9082.449999999999
0.0008022930000000001,9889.849999999999
0.0008024950000000001,10717.5
0.0008026970000000001,11631.6
0.000802899,12644.0
0.0008030340000000001,13380.2
0.000803169,14170.7
0.000803304,15020.6
0.000803485,16265.099999999999
0.000803655,17558.0
0.000803825,18984.8
0.000803995,20563.699999999997
0.000804166,22315.9
0.0008042790000000001,23592.5
0.000804393,24965.8
0.000804506,26445.4
0.0008046200000000001,28042.1
0.0008047330000000001,29768.1
0.0008048460000000001,31637.2
0.0008049600000000001,33665.2
0.000805073,35869.9
0.000805187,38271.799999999996
0.0008052860000000001,40553.600000000006
0.0008053860000000001,43022.4
0.0008054850000000001,45698.600000000006
0.000805584,48605.600000000006
0.000805684,51770.1
0.0008057829999999999,55222.8
0.0008058820000000001,58999.2
0.000805982,63140.5
