E(MeV),xs(mb)
1.0e-11,90115.0
1.03223e-11,88701.79999999999
1.06549e-11,87311.4
1.0998399999999998e-11,85942.5
1.13527e-11,84595.7
1.1718599999999999e-11,83269.59999999999
1.2096199999999998e-11,81965.0
1.24861e-11,80680.5
1.2888399999999999e-11,79416.8
1.3303799999999998e-11,78172.6
1.37325e-11,76948.5
1.41751e-11,75743.40000000001
1.4631799999999997e-11,74557.7
1.51034e-11,73390.3
1.5590099999999998e-11,72241.8
1.6092599999999998e-11,71111.1
1.66111e-11,69998.6
1.71465e-11,68903.4
1.7699e-11,67825.9
1.8269399999999998e-11,66765.1
1.88581e-11,65721.4
1.94659e-11,64693.899999999994
2.00931e-11,63682.99999999999
2.0740699999999998e-11,62687.799999999996
2.1408999999999998e-11,61708.600000000006
2.2099099999999997e-11,60744.8
2.28111e-11,59796.4
2.3546399999999998e-11,58862.8
2.4305099999999997e-11,57944.3
2.50884e-11,57040.100000000006
2.5896799999999997e-11,56150.5
2.67315e-11,55274.799999999996
2.75928e-11,54413.200000000004
2.8482199999999998e-11,53565.1
2.93999e-11,52730.7
3.0347499999999995e-11,51909.299999999996
3.13253e-11,51101.1
3.2335e-11,50305.7
3.33769e-11,49523.0
3.44526e-11,48752.700000000004
3.55627e-11,47994.700000000004
3.67089e-11,47248.700000000004
3.7891799999999997e-11,46514.7
3.9113e-11,45792.299999999996
4.0373400000000003e-11,45081.5
4.1674599999999996e-11,44381.899999999994
4.3017399999999996e-11,43693.7
4.440389999999999e-11,43016.2
4.58347e-11,42349.7
4.7311899999999994e-11,41693.8
4.883639999999999e-11,41048.4
5.0410399999999995e-11,40413.3
5.20348e-11,39788.4
5.37119e-11,39173.4
5.54426e-11,38568.4
5.7229499999999995e-11,37972.9
5.907359999999999e-11,37387.2
6.09775e-11,36810.7
6.29424e-11,36243.5
6.497099999999999e-11,35685.4
6.70645e-11,35136.4
6.9226e-11,34596.1
7.145659999999999e-11,34064.5
7.37596e-11,33541.5
7.61364e-11,33026.9
7.85902e-11,32520.600000000002
8.11227e-11,32022.6
8.37372e-11,31532.5
8.643549999999999e-11,31050.399999999998
8.922119999999998e-11,30576.0
9.209619999999999e-11,30109.4
9.506439999999999e-11,29650.3
9.81277e-11,29198.7
1.01291e-10,28754.300000000003
1.04554e-10,28317.399999999998
1.07924e-10,27887.300000000003
1.11402e-10,27464.5
1.1499200000000001e-10,27048.3
1.1869700000000001e-10,26639.2
1.22523e-10,26236.5
1.26471e-10,25840.6
1.30547e-10,25451.100000000002
1.34754e-10,25068.100000000002
1.3909700000000002e-10,24691.2
1.43579e-10,24320.6
1.48207e-10,23956.1
1.52982e-10,23597.600000000002
1.57913e-10,23245.0
1.6300100000000001e-10,22898.3
1.68254e-10,22557.3
1.73676e-10,22222.0
1.79274e-10,21892.2
1.8505000000000002e-10,21567.9
1.91014e-10,21248.999999999996
1.97169e-10,20935.5
2.03524e-10,20627.2
2.1008200000000003e-10,20324.100000000002
2.16853e-10,20026.0
2.2384e-10,19733.0
2.31055e-10,19444.8
2.385e-10,19161.600000000002
2.46187e-10,18883.1
2.5412e-10,18609.5
2.6231e-10,18340.3
2.70762e-10,18075.9
2.7948900000000003e-10,17815.9
2.88494e-10,17560.4
2.9779300000000004e-10,17309.2
3.07388e-10,17062.4
3.1729500000000004e-10,16819.8
3.2821400000000003e-10,16565.6
3.3950800000000003e-10,16316.2
3.51191e-10,16071.4
3.6327600000000003e-10,15831.1
3.75777e-10,15595.300000000001
3.8870800000000003e-10,15363.9
4.0208300000000005e-10,15136.8
4.15919e-10,14914.0
4.30232e-10,14695.400000000001
4.4503700000000007e-10,14480.900000000001
4.6035100000000003e-10,14270.5
4.76192e-10,14064.099999999999
4.92578e-10,13861.6
5.09528e-10,13663.099999999999
5.270620000000001e-10,13468.3
5.45199e-10,13277.300000000001
5.6396e-10,13090.0
5.83366e-10,12906.4
6.0344e-10,12726.3
6.24206e-10,12549.8
6.45685e-10,12376.8
6.67904e-10,12207.1
6.908870000000001e-10,12040.900000000001
7.14661e-10,11877.9
7.39254e-10,11718.2
7.64692e-10,11561.699999999999
7.91006e-10,11408.400000000001
8.182259999999999e-10,11258.2
8.46382e-10,11111.1
8.75507e-10,10966.9
9.07549e-10,10817.000000000002
9.40768e-10,10670.4
9.75198e-10,10527.0
1.0108900000000002e-9,10386.7
1.04789e-9,10249.6
1.08625e-9,10115.6
1.126e-9,9984.529999999999
1.16722e-9,9856.43
1.20994e-9,9731.25
1.25422e-9,9608.91
1.3001300000000001e-9,9489.380000000001
1.34771e-9,9372.58
1.3970400000000002e-9,9258.5
1.44817e-9,9147.05
1.50436e-9,9031.88
1.5627200000000002e-9,8919.560000000001
1.6233400000000001e-9,8810.04
1.6863200000000002e-9,8703.26
1.7517400000000002e-9,8599.16
1.8197000000000002e-9,8497.69
1.8903000000000004e-9,8398.79
1.96363e-9,8302.41
2.0398100000000002e-9,8208.49
2.12342e-9,8111.969999999999
2.21048e-9,8018.07
2.30109e-9,7926.7300000000005
2.3954200000000004e-9,7837.889999999999
2.49362e-9,7751.490000000001
2.59584e-9,7667.46
2.70225e-9,7585.759999999999
2.81898e-9,7502.2
2.9407500000000002e-9,7421.08
3.0677900000000002e-9,7342.33
3.20031e-9,7265.889999999999
3.3385500000000002e-9,7191.6900000000005
3.49015e-9,7116.12
3.6486100000000003e-9,7042.889999999999
3.81429e-9,6971.92
3.9874700000000005e-9,6903.139999999999
4.1685400000000006e-9,6836.48
4.36703e-9,6768.86
4.57499e-9,6703.42
4.7928400000000006e-9,6640.09
5.02107e-9,6578.8099999999995
5.27129e-9,6516.84
5.534e-9,6456.95
5.809780000000001e-9,6399.06
6.112230000000001e-9,6340.72
6.43042e-9,6284.39
6.765170000000001e-9,6230.0199999999995
7.13244e-9,6175.37
7.51961e-9,6122.67
7.92783e-9,6071.85
8.375890000000001e-9,6020.900000000001
8.84927e-9,5971.83
9.36917e-9,5922.76
9.919660000000001e-9,5875.549999999999
1.05247e-8,5828.46
1.11667e-8,5783.1900000000005
1.1872799999999999e-8,5738.15
1.26237e-8,5694.89
1.34504e-8,5651.94
1.43313e-8,5610.74
1.5302199999999998e-8,5569.92
1.63389e-8,5530.78
1.74827e-8,5492.09
1.87461e-8,5453.9
2.0101e-8,5417.37
2.1599300000000003e-8,5381.389999999999
2.32585e-8,5346.009999999999
2.50451e-8,5312.23
2.52522e-8,5308.57
2.5299999999999998e-8,5307.7300000000005
2.73011e-8,5274.79
2.95229e-8,5242.51
3.1993e-8,5210.93
3.47432e-8,5180.1
3.78096e-8,5150.05
4.12339e-8,5120.8
4.50634e-8,5092.38
4.93527e-8,5064.8
5.41649e-8,5038.09
5.95722e-8,5012.240000000001
6.565780000000001e-8,4987.26
7.267179999999999e-8,4962.67
8.060520000000001e-8,4939.02
8.97839e-8,4915.87
1.0021899999999999e-7,4893.679999999999
1.12342e-7,4872.07
1.26464e-7,4851.08
1.42663e-7,4831.11
1.6161899999999999e-7,4811.81
1.8387e-7,4793.22
2.10515e-7,4775.089999999999
2.42043e-7,4757.75
2.80064e-7,4740.9800000000005
3.2543e-7,4725.05
3.80552e-7,4709.780000000001
4.4878999999999993e-7,4695.01
5.32633e-7,4680.98
6.37507e-7,4667.570000000001
7.69515e-7,4654.82
9.38728e-7,4642.65
1.19084e-6,4629.65
2.07107e-6,4604.849999999999
5.0412399999999995e-6,4576.59
1.60141e-5,4552.06
8.248300000000002e-5,4517.089999999999
0.000542865,4382.51
0.00125258,4214.17
0.00207605,4054.22
0.0030110700000000002,3906.28
0.00409542,3767.04
0.00533838,3638.32
0.00680475,3516.89
0.0085401,3402.92
0.0105735,3297.48
0.0130135,3198.25
0.0160405,3102.64
0.0197717,3011.61
0.0245169,2922.58
0.0306336,2834.1400000000003
0.0387525,2742.52
0.0503684,2637.83
0.0519545,2625.6
0.052051,2630.08
0.0520605,2637.3799999999997
0.0520646,2648.11
0.052068500000000004,2671.3
0.0520712,2702.36
0.052074,2752.56
0.052076500000000005,2820.1200000000003
0.0520782,2879.5299999999997
0.0520799,2951.73
0.052081600000000006,3042.35
0.052083500000000005,3153.27
0.0520863,3344.7
0.0520911,3703.91
0.052093,3834.45
0.0520945,3920.9100000000003
0.0520963,4004.8899999999994
0.052098000000000005,4054.5400000000004
0.052099700000000006,4074.47
0.0521,4074.8300000000004
0.0521017,4059.4700000000003
0.0521033,4015.7100000000005
0.0521052,3934.05
0.0521075,3797.9500000000003
0.052109699999999995,3644.39
0.0521145,3287.25
0.052116300000000004,3161.2
0.0521182,3048.8900000000003
0.05212030000000001,2941.53
0.052122400000000006,2854.9
0.052124699999999996,2781.39
0.0521265,2737.64
0.0521293,2692.0899999999997
0.0521312,2671.97
0.052134900000000005,2648.0299999999997
0.05213860000000001,2636.86
0.052152000000000004,2627.3
0.052432900000000005,2621.08
0.0759247,2446.9599999999996
0.0978514,2290.08
0.09808059999999999,2294.98
0.09812900000000001,2306.31
0.0981411,2317.11
0.0981486,2334.88
0.0981537,2361.92
0.0981571,2393.21
0.0981598,2429.7
0.09816290000000001,2486.7
0.0981649,2536.75
0.0981669,2598.19
0.0981689,2670.41
0.0981709,2755.83
0.0981728,2855.1099999999997
0.0981748,2968.3799999999997
0.098177,3112.58
0.09817920000000001,3271.89
0.0981828,3547.53
0.0981881,3964.5299999999997
0.09819050000000001,4134.64
0.09819240000000001,4250.75
0.0981942,4338.87
0.09819610000000001,4410.63
0.09819789999999999,4450.87
0.0981997,4464.26
0.09820169999999999,4447.16
0.0982034,4409.360000000001
0.0982053,4337.39
0.09820690000000001,4259.75
0.0982092,4115.68
0.0982106,4015.14
0.09821389999999999,3765.0800000000004
0.09821999999999999,3276.73
0.0982228,3069.51
0.0982254,2899.55
0.0982272,2800.25
0.09822900000000001,2712.52
0.09823090000000001,2631.16
0.0982329,2558.06
0.0982349,2497.9300000000003
0.09823689999999999,2449.31
0.09823930000000002,2404.1800000000003
0.09824210000000001,2366.02
0.09824490000000001,2339.5899999999997
0.09824909999999999,2315.1000000000004
0.0982548,2298.7000000000003
0.0982606,2291.6
0.0982812,2284.78
0.11500300000000002,2163.25
0.119936,2138.2400000000002
0.122146,2134.22
0.124514,2141.3799999999997
0.12625,2160.81
0.12751300000000002,2188.89
0.12846,2222.69
0.12928900000000002,2266.1
0.12998300000000002,2317.38
0.130544,2372.47
0.131033,2435.01
0.131491,2509.3999999999996
0.13187000000000001,2586.84
0.132249,2683.11
0.132501,2760.67
0.132754,2851.6400000000003
0.133006,2959.09
0.133259,3086.97
0.133448,3199.8700000000003
0.133638,3328.9
0.133827,3479.82
0.13401700000000002,3654.22
0.13419,3840.98
0.134332,4016.75
0.134474,4216.92
0.134616,4445.77
0.13475900000000002,4708.5
0.13490100000000002,5011.77
0.134995,5240.66
0.13509000000000002,5493.509999999999
0.135185,5774.5199999999995
0.135279,6086.389999999999
0.135374,6434.63
0.135469,6822.84
0.135564,7258.25
0.135658,7745.57
0.13572900000000002,8150.550000000001
0.1358,8592.88
0.13587100000000002,9076.1
0.135942,9603.910000000002
0.13601300000000002,10180.199999999999
0.13608499999999998,10809.2
0.13615600000000003,11494.800000000001
0.13622700000000001,12241.0
0.136298,13050.6
0.13636900000000002,13925.199999999999
0.136455,15084.800000000001
0.13653400000000002,16214.2
0.136637,17783.4
0.13687400000000002,21509.9
0.136968,22868.5
0.13703600000000002,23704.9
0.137095,24324.1
0.137154,24816.1
0.137204,25104.4
0.13726400000000002,25293.399999999998
0.137294,25323.2
0.137355,25234.0
0.13741699999999998,24953.1
0.137482,24485.600000000002
0.137553,23784.3
0.137624,22924.000000000004
0.13771,21718.3
0.138002,17271.0
0.138105,15793.5
0.138212,14384.2
0.138295,13381.9
0.138366,12589.4
0.138437,11857.0
0.13850800000000002,11182.0
0.138579,10561.199999999999
0.13865000000000002,9990.619999999999
0.138721,9466.51
0.138815,8832.98
0.13891,8268.31
0.13900500000000002,7762.55
0.1391,7310.53
0.139194,6904.29
0.139289,6539.74
0.139384,6210.71
0.139478,5914.07
0.139573,5645.1
0.139668,5401.44
0.13981,5076.16
0.13995200000000002,4792.570000000001
0.14009400000000002,4544.18
0.140236,4325.46
0.140394,4113.34
0.14052,3961.3
0.14064700000000002,3823.92
0.14083600000000002,3640.7400000000002
0.141025,3482.91
0.141215,3343.81
0.14134100000000002,3260.91
0.141594,3114.25
0.141846,2988.9199999999996
0.142099,2880.88
0.142351,2787.04
0.14273,2667.63
0.14310900000000001,2568.45
0.14350400000000002,2481.81
0.14393,2403.4399999999996
0.144514,2314.0499999999997
0.14511400000000002,2239.73
0.145824,2167.94
0.146771,2091.4
0.147876,2020.9199999999998
0.149139,1956.17
0.15071800000000002,1890.13
0.15277000000000002,1818.7
0.15644000000000002,1708.97
0.161669,1557.53
0.164349,1471.01
0.16642300000000002,1395.09
0.168048,1327.39
0.16939300000000002,1263.85
0.170738,1191.24
0.171858,1121.7299999999998
0.172755,1058.72
0.173539,997.1120000000001
0.174324,928.838
0.175052,859.2
0.17647600000000002,714.376
0.17683400000000002,682.056
0.177103,662.354
0.177283,652.746
0.177462,647.2
0.17755200000000002,646.3910000000001
0.177686,648.3259999999999
0.177821,654.649
0.17791,661.9830000000001
0.17800000000000002,672.244
0.17809,685.909
0.178179,703.535
0.178269,725.769
0.17835900000000002,753.2180000000001
0.178426,777.8050000000001
0.178493,806.452
0.17856000000000002,839.519
0.178628,877.531
0.17869500000000002,921.107
0.178762,970.906
0.17882900000000002,1027.7
0.178897,1092.33
0.178964,1165.74
0.17903100000000002,1248.9699999999998
0.179098,1343.19
0.17914300000000002,1412.73
0.17918800000000001,1488.1100000000001
0.179233,1569.7700000000002
0.17927800000000002,1658.16
0.179322,1753.74
0.17936700000000003,1857.0
0.17941200000000002,1968.44
0.179457,2088.58
0.17950200000000002,2217.91
0.179547,2356.96
0.179591,2506.2000000000003
0.17963600000000002,2666.11
0.179681,2837.1
0.17974800000000002,3115.1
0.179816,3419.7000000000003
0.17988300000000002,3751.06
0.179958,4155.24
0.18003400000000003,4590.410000000001
0.18010700000000002,5035.2699999999995
0.180241,5896.17
0.180398,6903.82
0.18048200000000003,7406.780000000001
0.180561,7831.089999999999
0.1806,8023.5599999999995
0.180678,8356.439999999999
0.180737,8560.13
0.18080200000000002,8734.310000000001
0.180869,8860.82
0.180936,8932.51
0.18099200000000001,8953.34
0.181059,8933.41
0.181127,8871.7
0.181201,8762.67
0.181289,8586.37
0.181407,8301.47
0.18158600000000003,7801.1900000000005
0.18185500000000002,7027.9800000000005
0.182035,6547.17
0.18221400000000001,6110.21
0.18239300000000003,5719.74
0.182572,5373.719999999999
0.18275200000000003,5068.11
0.182931,4798.2300000000005
0.18311,4559.5
0.18329,4347.72
0.183469,4159.21
0.183648,3990.75
0.183828,3839.63
0.184097,3640.45
0.18436600000000003,3468.71
0.184635,3319.4
0.184904,3188.56
0.18521700000000002,3055.23
0.18557600000000002,2923.4399999999996
0.186007,2788.15
0.186428,2675.8199999999997
0.18687600000000001,2572.6800000000003
0.18743600000000002,2463.0
0.187997,2369.4500000000003
0.188645,2277.56
0.189387,2188.82
0.19018900000000002,2107.77
0.191144,2027.2800000000002
0.19223400000000002,1951.22
0.193461,1881.87
0.19456800000000002,1831.0
0.195721,1788.5200000000002
0.196874,1756.3999999999999
0.198028,1735.05
0.199253,1725.29
0.19934300000000002,1725.2099999999998
0.20033500000000004,1730.8
0.201084,1744.0500000000002
0.201776,1765.18
0.20244,1793.93
0.20304500000000003,1829.9099999999999
0.20350600000000002,1864.85
0.20396800000000004,1907.3899999999999
0.20454400000000003,1973.47
0.20500600000000002,2038.5200000000002
0.20546700000000004,2116.8
0.205813,2185.3799999999997
0.20615899999999998,2265.06
0.206505,2355.75
0.206851,2461.37
0.207197,2581.93
0.207428,2673.04
0.207659,2773.52
0.207889,2884.43
0.20812,3006.98
0.208351,3142.55
0.20858100000000002,3292.6600000000003
0.208812,3459.05
0.209043,3643.64
0.20927300000000001,3848.6099999999997
0.20950400000000002,4076.3100000000004
0.209735,4329.349999999999
0.209965,4610.55
0.21019600000000002,4922.84
0.21042700000000003,5269.26
0.210657,5652.75
0.21088800000000002,6075.92
0.21111900000000003,6540.759999999999
0.211349,7048.14
0.21158000000000002,7597.15
0.21181100000000003,8184.380000000001
0.21215700000000004,9121.77
0.212676,10551.8
0.212791,10858.099999999999
0.21307900000000002,11551.800000000001
0.213252,11905.699999999999
0.21342500000000003,12194.400000000001
0.213598,12412.8
0.21371400000000002,12512.4
0.21391000000000002,12596.7
0.21393300000000004,12598.0
0.21411500000000003,12559.3
0.21429,12437.3
0.214463,12235.400000000001
0.21463700000000002,11967.5
0.214809,11634.500000000002
0.21498300000000004,11265.5
0.21521300000000002,10717.2
0.21596300000000002,8807.359999999999
0.216194,8243.51
0.216424,7708.41
0.21665500000000001,7206.47
0.21688600000000002,6739.650000000001
0.217116,6308.18
0.217347,5911.11
0.21757800000000002,5546.74
0.217808,5212.97
0.218039,4907.49
0.21827000000000002,4627.97
0.21850000000000003,4372.09
0.218731,4137.71
0.21896200000000002,3922.77
0.21919200000000003,3725.42
0.21942300000000003,3543.96
0.21965400000000002,3376.84
0.21988400000000002,3222.68
0.22011500000000003,3080.23
0.22034600000000004,2948.3700000000003
0.22069200000000003,2768.9900000000002
0.22103799999999998,2606.86
0.221384,2462.1400000000003
0.22172999999999998,2330.42
0.222076,2211.9300000000003
0.222422,2103.39
0.222883,1973.82
0.22334500000000002,1858.5700000000002
0.223806,1755.48
0.224267,1662.96
0.224729,1579.6
0.22519,1504.3
0.22576700000000002,1420.04
0.226228,1359.6
0.226877,1284.19
0.227439,1226.0800000000002
0.22798,1176.97
0.22852000000000003,1132.97
0.229169,1087.38
0.229746,1053.51
0.230034,1037.72
0.230611,1011.35
0.231187,990.298
0.231764,974.572
0.23234100000000002,964.239
0.23306200000000002,959.052
0.233494,960.2840000000001
0.23407100000000003,967.0769999999999
0.23464800000000002,980.0219999999999
0.23536800000000002,1005.42
0.235892,1030.44
0.23637800000000003,1058.87
0.23695400000000003,1100.0
0.237459,1143.6
0.237783,1177.14
0.23807200000000003,1214.0
0.23821400000000004,1237.35
0.23835099999999998,1266.44
0.23844100000000001,1291.8799999999999
0.238523,1323.1200000000001
0.23858400000000002,1354.8
0.23863800000000002,1391.94
0.238671,1421.44
0.238705,1457.94
0.238738,1504.12
0.238761,1543.77
0.23878400000000002,1591.69
0.23880800000000002,1650.3600000000001
0.23882500000000004,1703.46
0.238839,1753.3600000000001
0.238855,1821.81
0.238868,1881.72
0.23887999999999998,1950.52
0.23889200000000002,2029.96
0.238904,2122.1899999999996
0.23891700000000002,2229.9
0.23892500000000003,2311.9
0.23893300000000003,2403.41
0.238941,2505.77
0.23895,2620.53
0.238958,2749.46
0.238965,2886.87
0.23897300000000002,3032.23
0.23898000000000003,3194.14
0.23898799999999998,3374.45
0.23899499999999999,3575.08
0.239002,3797.8900000000003
0.23901,4044.5299999999997
0.239017,4316.24
0.23902400000000001,4579.33
0.23903200000000002,4954.900000000001
0.23904100000000003,5362.09
0.23905200000000001,5942.820000000001
0.239072,6972.57
0.23908100000000002,7368.7699999999995
0.23908900000000002,7714.349999999999
0.23909400000000003,7906.71
0.2391,8062.31
0.239106,8176.8099999999995
0.239111,8247.03
0.23911600000000002,8270.73
0.23912100000000003,8257.09
0.239126,8204.39
0.239133,8076.81
0.23914000000000002,7890.44
0.239147,7660.38
0.23915700000000004,7258.849999999999
0.23917000000000002,6654.530000000001
0.239186,5880.45
0.23919600000000002,5441.38
0.239207,4995.92
0.239214,4724.63
0.23922200000000002,4474.54
0.23922900000000002,4245.2699999999995
0.239236,4035.94
0.239243,3845.35
0.23925100000000002,3672.08
0.23925800000000003,3514.68
0.239269,3305.19
0.23928,3123.59
0.23929,2965.8199999999997
0.23930099999999999,2828.3
0.23931200000000002,2708.0299999999997
0.239323,2602.41
0.239334,2509.3399999999997
0.239348,2401.68
0.239363,2309.65
0.239376,2236.04
0.239395,2149.4399999999996
0.23941300000000001,2076.79
0.239432,2015.32
0.239456,1947.2
0.239483,1887.14
0.239512,1834.83
0.239541,1792.59
0.239585,1743.29
0.23963100000000004,1704.3
0.23967800000000003,1675.25
0.23974700000000004,1644.59
0.239817,1624.67
0.23990999999999998,1609.1
0.240014,1601.45
0.24007200000000004,1600.25
0.240229,1604.56
0.24046599999999999,1624.3000000000002
0.24073699999999998,1657.9299999999998
0.241165,1724.69
0.24150700000000003,1785.93
0.242156,1916.16
0.24256600000000003,2005.4599999999998
0.24311300000000002,2132.25
0.243934,2336.35
0.245028,2626.86
0.24764,3342.01
0.24883000000000002,3647.53
0.25022500000000003,3981.42
0.250483,4062.8599999999997
0.250583,4111.33
0.250641,4152.43
0.25070600000000004,4220.84
0.25074100000000005,4277.74
0.25077,4344.38
0.250792,4412.55
0.25081400000000004,4504.82
0.250829,4585.81
0.250844,4688.900000000001
0.25085799999999997,4822.28
0.250869,4948.929999999999
0.25088,5105.0599999999995
0.25089100000000003,5297.73
0.250902,5534.0199999999995
0.250913,5819.17
0.250921,6059.62
0.250935,6500.5199999999995
0.250952,7116.29
0.250961,7379.49
0.250967,7545.36
0.250973,7674.22
0.250979,7758.66
0.25098600000000004,7794.13
0.250987,7794.39
0.25099200000000005,7776.93
0.250998,7722.44
0.25100300000000003,7633.4400000000005
0.251008,7513.94
0.251018,7242.51
0.251034,6700.26
0.25105,6160.2
0.25105900000000003,5872.94
0.25107,5602.32
0.25108,5375.81
0.251091,5189.36
