E(MeV),xs(mb)
1.0e-11,419395.0
1.03223e-11,412840.0
1.06549e-11,406391.0
1.0998399999999998e-11,400040.99999999994
1.13527e-11,393795.0
1.1718599999999999e-11,387645.0
1.2096199999999998e-11,381595.0
1.24861e-11,375639.0
1.2888399999999999e-11,369779.0
1.3303799999999998e-11,364010.0
1.37325e-11,358335.0
1.41751e-11,352748.0
1.4631799999999997e-11,347252.0
1.51034e-11,341841.0
1.5590099999999998e-11,336518.0
1.6092599999999998e-11,331277.0
1.66111e-11,326122.0
1.71465e-11,321047.0
1.7699e-11,316055.0
1.8269399999999998e-11,311140.0
1.88581e-11,306305.0
1.94659e-11,301546.0
2.00931e-11,296864.0
2.0740699999999998e-11,292255.0
2.1408999999999998e-11,287721.0
2.2099099999999997e-11,283258.0
2.28111e-11,278868.0
2.3546399999999998e-11,274546.0
2.4305099999999997e-11,270295.0
2.50884e-11,266110.0
2.5896799999999997e-11,261993.0
2.67315e-11,257941.99999999997
2.75928e-11,253955.99999999997
2.8482199999999998e-11,250033.0
2.93999e-11,246173.99999999997
3.0347499999999995e-11,242375.0
3.13253e-11,238639.0
3.2335e-11,234961.99999999997
3.33769e-11,231344.0
3.44526e-11,227784.0
3.55627e-11,224282.0
3.67089e-11,220836.0
3.7891799999999997e-11,217445.99999999997
3.9113e-11,214109.00000000003
4.0373400000000003e-11,210827.0
4.1674599999999996e-11,207598.0
4.3017399999999996e-11,204421.0
4.440389999999999e-11,201295.0
4.58347e-11,198221.0
4.7311899999999994e-11,195195.0
4.883639999999999e-11,192219.0
5.0410399999999995e-11,189291.0
5.20348e-11,186411.0
5.37119e-11,183577.0
5.54426e-11,180790.0
5.7229499999999995e-11,178047.0
5.907359999999999e-11,175350.0
6.09775e-11,172697.0
6.29424e-11,170087.0
6.497099999999999e-11,167519.0
6.70645e-11,164994.0
6.9226e-11,162510.0
7.145659999999999e-11,160067.0
7.37596e-11,157664.0
7.61364e-11,155300.0
7.85902e-11,152976.0
8.11227e-11,150690.0
8.37372e-11,148441.0
8.643549999999999e-11,146230.0
8.922119999999998e-11,144055.0
9.209619999999999e-11,141917.0
9.506439999999999e-11,139814.0
9.81277e-11,137746.0
1.01291e-10,135712.0
1.04554e-10,133712.0
1.07924e-10,131746.0
1.11402e-10,129813.0
1.1499200000000001e-10,127912.0
1.1869700000000001e-10,126043.0
1.22523e-10,124205.00000000001
1.26471e-10,122398.99999999999
1.30547e-10,120622.99999999999
1.34754e-10,118878.0
1.3909700000000002e-10,117161.0
1.43579e-10,115474.00000000001
1.48207e-10,113816.0
1.52982e-10,112186.00000000001
1.57913e-10,110584.0
1.63347e-10,108905.00000000001
1.6896800000000002e-10,107257.0
1.74782e-10,105640.0
1.80796e-10,104051.99999999999
1.87018e-10,102492.99999999999
1.9345300000000001e-10,100963.0
2.0011000000000002e-10,99462.1
2.06996e-10,97988.70000000001
2.14119e-10,96542.7
2.21487e-10,95123.8
2.2910900000000002e-10,93731.50000000001
2.36993e-10,92365.4
2.45148e-10,91024.99999999999
2.53584e-10,89710.0
2.6231e-10,88419.9
2.7133600000000003e-10,87154.3
2.80673e-10,85912.90000000001
2.90331e-10,84695.2
3.0032199999999997e-10,83500.9
3.10657e-10,82329.5
3.21347e-10,81180.8
3.3240500000000005e-10,80054.3
3.43843e-10,78949.7
3.55675e-10,77866.7
3.67914e-10,76804.7
3.8057400000000004e-10,75763.6
3.9367000000000005e-10,74743.0
4.07217e-10,73742.5
4.2123e-10,72761.8
4.3572499999999996e-10,71800.6
4.5071899999999996e-10,70858.5
4.67214e-10,69878.2
4.84316e-10,68918.6
5.020400000000001e-10,67979.59999999999
5.20417e-10,67060.5
5.39463e-10,66161.4
5.592100000000001e-10,65281.399999999994
5.796750000000001e-10,64420.6
6.00894e-10,63578.299999999996
6.228850000000001e-10,62754.399999999994
6.45685e-10,61948.299999999996
6.69316e-10,61159.9
6.93815e-10,60388.700000000004
7.19207e-10,59634.5
7.45533e-10,58896.8
7.72818e-10,58175.5
8.027990000000002e-10,57429.0
8.339440000000001e-10,56699.9
8.66297e-10,55988.0
8.999050000000001e-10,55292.8
9.34817e-10,54614.0
9.71083e-10,53951.200000000004
1.0087600000000001e-9,53304.0
1.04789e-9,52672.100000000006
1.08854e-9,52055.100000000006
1.1307700000000002e-9,51452.7
1.17713e-9,50832.3
1.22538e-9,50227.399999999994
1.27562e-9,49637.6
1.32791e-9,49062.6
1.38235e-9,48501.899999999994
1.43901e-9,47955.2
1.49801e-9,47422.1
1.5627200000000002e-9,46875.299999999996
1.6302200000000002e-9,46342.9
1.70064e-9,45824.299999999996
1.7741100000000002e-9,45319.399999999994
1.85075e-9,44827.5
1.93069e-9,44348.5
2.01835e-9,43858.9
2.11e-9,43382.6
2.2058e-9,42919.299999999996
2.3059599999999998e-9,42468.399999999994
2.41066e-9,42029.8
2.52013e-9,41603.0
2.64013e-9,41168.1
2.76585e-9,40745.4
2.89755e-9,40334.6
3.03553e-9,39935.1
3.1868e-9,39529.4
3.34563e-9,39135.5
3.51235e-9,38752.9
3.6874e-9,38381.3
3.87936e-9,38004.9
4.08132e-9,37639.7
4.2937800000000004e-9,37285.4
4.51731e-9,36941.5
4.76252e-9,36594.2
5.02107e-9,36257.4
5.2936300000000005e-9,35931.0
5.5810000000000005e-9,35614.4
5.89643e-9,35295.4
6.22967e-9,34986.5
6.58176e-9,34687.2
6.96844e-9,34386.299999999996
7.3778800000000006e-9,34095.1
7.81133e-9,33813.3
8.28778e-9,33530.6
8.793290000000001e-9,33257.4
9.3494e-9,32983.799999999996
9.94064e-9,32719.6
1.05693e-8,32464.4
1.12615e-8,32209.6
1.1999e-8,31963.6
1.28119e-8,31718.5
1.36799e-8,31482.100000000002
1.46376e-8,31246.999999999996
1.56623e-8,31020.500000000004
1.67942e-8,30795.7
1.8008e-8,30579.399999999998
1.93503e-8,30365.000000000004
2.0792700000000003e-8,30158.9
2.23899e-8,29955.1
2.41608e-8,29753.8
2.52522e-8,29640.8
2.5299999999999998e-8,29636.0
2.7359e-8,29442.499999999996
2.9585300000000003e-8,29257.1
3.20607e-8,29074.6
3.48168e-8,28895.300000000003
3.78897e-8,28719.5
4.13211e-8,28547.4
4.50634e-8,28383.1
4.92486e-8,28222.399999999998
5.3936300000000004e-8,28065.600000000002
5.91953e-8,27912.8
6.51048e-8,27764.1
7.17556e-8,27619.5
7.92531e-8,27479.300000000003
8.790530000000001e-8,27340.8
9.770830000000001e-8,27206.899999999998
1.0883400000000001e-7,27077.8
1.21741e-7,26951.0
1.36467e-7,26829.2
1.53622e-7,26710.3
1.73299e-7,26596.600000000002
1.9632599999999998e-7,26486.100000000002
2.23355e-7,26379.100000000002
2.5518299999999996e-7,26275.7
2.9278e-7,26176.2
3.37342e-7,26080.7
3.91159e-7,25988.1
4.55483e-7,25899.800000000003
5.3376e-7,25814.8
6.2947e-7,25733.3
7.48648e-7,25654.6
8.979539999999999e-7,25579.100000000002
1.0796099999999999e-6,25509.300000000003
1.56498e-6,25386.5
3.2653099999999997e-6,25198.6
8.06068e-6,25034.800000000003
2.57851e-5,24865.2
0.000130962,24462.899999999998
0.000600725,23068.0
0.00121341,21445.1
0.00188316,19846.600000000002
0.00261075,18273.9
0.0033901300000000003,16736.0
0.00424688,15179.5
0.00525804,13467.3
0.006831330000000001,10944.6
0.0068927500000000004,10854.8
0.006898,10872.800000000001
0.00689931,10916.699999999999
0.0069001,10979.4
0.006900890000000001,11092.800000000001
0.00690154,11242.6
0.0069022,11453.9
0.00690299,11790.199999999999
0.0069047200000000005,12674.4
0.00690539,12942.1
0.00690597,13077.9
0.0069064,13108.800000000001
0.006906880000000001,13067.9
0.00690743,12929.4
0.00690798,12716.0
0.00690902,12182.2
0.00691007,11656.0
0.00691086,11346.6
0.006911520000000001,11158.8
0.00691217,11029.1
0.00691309,10921.400000000001
0.00691401,10868.3
0.00691664,10824.9
0.0069911899999999996,10691.1
0.00818258,8776.300000000001
0.008883470000000001,7602.9
0.0094643,6582.71
0.00994617,5693.22
0.0103345,4943.660000000001
0.0107032,4201.65
0.011079000000000002,3416.77
0.0115204,2464.89
0.011888300000000001,1668.0600000000002
0.0120538,1319.25
0.0121356,1152.0900000000001
0.012228699999999999,966.2699999999999
0.0122952,838.622
0.012359,720.05
0.012415099999999998,620.597
0.0124552,552.208
0.012485,502.928
0.0125225,443.20399999999995
0.012554300000000001,394.686
0.0125867,347.676
0.012605400000000001,322.279
0.012617100000000001,307.698
0.0126229,301.749
0.0126264,299.81
0.0126267,299.797
0.012628299999999999,300.84499999999997
0.0126292,303.418
0.012629900000000001,306.808
0.0126303,310.264
0.0126308,315.056
0.0126312,321.607
0.012631600000000002,330.431
0.012631900000000001,338.914
0.0126323,349.31399999999996
0.0126325,357.47200000000004
0.0126328,371.414
0.0126331,388.03299999999996
0.0126334,402.46899999999994
0.0126336,418.73699999999997
0.0126338,436.988
0.012634099999999999,457.345
0.012634300000000001,479.93600000000004
0.0126345,504.849
0.0126348,532.176
0.012635,561.95
0.0126353,596.0169999999999
0.0126355,632.8109999999999
0.012635799999999999,686.0360000000001
0.0126362,743.734
0.0126366,826.244
0.0126372,936.26
0.012638100000000001,1132.21
0.0126386,1228.2
0.012639000000000001,1299.22
0.0126394,1361.15
0.0126397,1401.67
0.012640100000000001,1439.43
0.012640400000000001,1460.85
0.012640700000000001,1473.67
0.012641,1477.6000000000001
0.0126413,1471.79
0.0126416,1457.16
0.0126419,1433.9599999999998
0.0126422,1396.9499999999998
0.012642500000000001,1356.4099999999999
0.012642899999999999,1293.1
0.0126433,1220.65
0.0126438,1125.2
0.012645,879.082
0.012645400000000001,798.577
0.0126457,741.184
0.012646,681.12
0.0126464,625.476
0.0126466,586.85
0.0126469,551.007
0.0126472,511.641
0.0126474,476.27
0.0126477,452.27700000000004
0.012647900000000002,430.40500000000003
0.0126481,410.545
0.0126483,392.602
0.012648600000000001,376.456
0.0126488,362.00100000000003
0.0126491,345.137
0.0126494,331.868
0.0126496,321.43
0.0126499,312.376
0.0126502,301.055
0.012650600000000001,292.01800000000003
0.012650999999999999,284.848
0.012651200000000001,280.92
0.0126517,274.686
0.0126522,270.10900000000004
0.012653000000000001,265.33000000000004
0.012653700000000002,262.103
0.0126552,257.90099999999995
0.0126572,254.056
0.0126612,247.947
0.0126721,233.827
0.0126901,212.248
0.012709600000000001,190.24099999999999
0.012729200000000001,169.36599999999999
0.0127451,153.206
0.012761100000000001,137.883
0.012773399999999999,126.728
0.0127857,116.133
0.012797900000000001,106.102
0.0128102,96.6602
0.012822400000000001,87.8046
0.0128316,81.55760000000001
0.012840800000000001,75.68469999999999
0.01285,70.1802
0.0128592,65.0592
0.0128684,60.3266
0.012877600000000001,55.98779999999999
0.0128868,52.0416
0.012896000000000001,48.5313
0.012902100000000001,46.433499999999995
0.0129083,44.5324
0.0129144,42.831900000000005
0.0129205,41.3362
0.0129267,40.049400000000006
0.0129328,38.976
0.0129389,38.120599999999996
0.012945100000000001,37.4878
0.012951200000000001,37.0826
0.0129578,36.9049
0.0129583,36.9028
0.0129635,36.978
0.0129687,37.2268
0.0129739,37.6522
0.012979000000000001,38.2588
0.0129842,39.0507
0.012989,39.9527
0.012995099999999999,41.349900000000005
0.0130013,43.0266
0.0130074,44.991
0.0130135,47.25189999999999
0.0130197,49.8187
0.0130258,52.70139999999999
0.0130319,55.911
0.013038000000000001,59.4593
0.013044199999999999,63.3591
0.013050299999999999,67.6243
0.0130564,72.2701
0.0130626,77.3134
0.0130687,82.77250000000001
0.0130748,88.6678
0.013081,95.022
0.0130871,101.86
0.013093200000000001,109.21099999999998
0.0130994,117.106
0.0131055,125.582
0.013111600000000001,134.679
0.013117700000000001,144.444
0.013123899999999999,154.93200000000002
0.01313,166.204
0.0131361,178.332
0.0131423,191.40200000000002
0.013148400000000001,205.512
0.0131545,220.78099999999998
0.013160700000000001,237.349
0.013166800000000001,255.38599999999997
0.013172900000000001,275.09700000000004
0.0131791,296.733
0.0131852,320.604
0.013189800000000002,340.203
0.0131944,361.473
0.013199,384.654
0.0132036,410.032
0.013208200000000002,437.95599999999996
0.0132128,468.854
0.013217399999999999,503.245
0.013222000000000001,541.716
0.013225,570.0319999999999
0.013228100000000001,600.889
0.0132312,634.645
0.013234999999999999,681.5360000000001
0.0132376,716.1419999999999
0.0132401,753.8389999999999
0.013242700000000001,795.054
0.013245199999999999,840.287
0.0132478,890.1289999999999
0.0132503,945.287
0.0132525,998.2710000000001
0.0132544,1047.54
0.0132563,1101.1899999999998
0.0132582,1159.7900000000002
0.013260099999999999,1224.0200000000002
0.013262000000000001,1294.65
0.0132639,1372.62
0.013265800000000001,1459.06
0.0132674,1541.6499999999999
0.0132688,1617.78
0.013270200000000001,1700.54
0.0132716,1790.75
0.0132729,1889.3500000000001
0.013274300000000001,1997.49
0.0132757,2116.4900000000002
0.0132771,2247.9300000000003
0.013278300000000002,2373.92
0.0132798,2552.8
0.013280799999999999,2684.94
0.0132818,2828.8
0.0132829,2985.8799999999997
0.0132839,3157.84
0.0132849,3346.7
0.0132859,3554.74
0.013286800000000001,3736.86
0.0132876,3934.64
0.0132884,4149.99
0.013289200000000001,4385.04
0.01329,4642.389999999999
0.0132908,4924.9
0.0132917,5236.08
0.0132925,5579.95
0.0132931,5886.8099999999995
0.0132938,6221.429999999999
0.0132945,6587.42
0.0132951,6988.780000000001
0.0132958,7430.44
0.013296500000000001,7917.91
0.0132971,8457.95
0.0132978,9058.35
0.0132983,9535.550000000001
0.0132988,10053.300000000001
0.0132992,10616.6
0.013299700000000001,11230.6
0.0133002,11902.0
0.0133007,12637.5
0.0133012,13445.6
0.0133016,14335.7
0.013302000000000001,15166.2
0.0133024,16071.5
0.0133029,17060.2
0.0133033,18141.5
0.013303700000000002,19326.5
0.013304100000000001,20626.2
0.013304499999999999,22053.699999999997
0.0133049,23622.100000000002
0.0133052,24989.2
0.0133056,26463.800000000003
0.013305899999999999,28054.800000000003
0.013306199999999999,29770.0
0.0133065,31618.9
0.0133069,33608.9
0.0133072,35748.9
0.013307500000000002,38045.8
0.0133079,41312.9
0.0133084,44875.2
0.0133088,48742.9
0.013309200000000002,52918.0
0.0133097,57398.2
0.0133101,61703.5
0.013310500000000001,67458.2
0.0133113,76643.7
0.013313,99155.0
0.0133137,108283.0
0.0133142,114053.0
0.0133148,119160.0
0.013315300000000002,123444.0
0.0133156,126030.0
0.013316099999999999,128241.0
0.0133165,129689.00000000001
0.013317,130180.0
0.0133174,129817.0
0.0133178,128732.0
0.0133182,126921.0
0.0133186,124361.00000000001
0.013319000000000001,121146.0
0.013319399999999999,117350.0
0.01332,111523.0
0.013320499999999999,105390.0
0.013321300000000001,96049.4
0.013322700000000002,76745.7
0.0133235,67570.7
0.0133239,61823.4
0.0133245,55998.1
0.0133249,51623.0
0.0133253,47555.1
0.0133258,43792.799999999996
0.0133262,40334.0
0.0133266,37022.8
0.013327,34806.4
0.0133273,32743.699999999997
0.0133276,30826.699999999997
0.013328,29047.0
0.0133283,27395.9
0.0133286,25865.100000000002
0.0133289,24446.4
0.0133293,22973.9
0.0133297,21478.3
0.013330100000000001,20117.1
0.0133305,18877.1
0.013330900000000001,17746.1
0.013331299999999999,16713.0
0.013331800000000001,15768.0
0.0133322,14902.0
0.0133326,13981.699999999999
0.013333200000000002,13034.2
0.0133337,12183.5
0.013334299999999999,11417.2
0.0133348,10724.7
0.013335399999999999,10096.8
0.013335900000000001,9525.84
0.0133364,9005.19
0.0133371,8463.150000000001
0.0133378,7913.15
0.0133385,7419.26
0.0133392,6974.0599999999995
0.0133399,6571.32
0.013340600000000001,6205.79
0.0133413,5873.02
0.013342000000000001,5569.200000000001
0.0133428,5250.15
0.0133437,4924.43
0.0133446,4632.0
0.013345599999999999,4368.509999999999
0.013346499999999999,4130.25
0.0133474,3914.1400000000003
0.0133483,3717.54
0.013349200000000002,3538.19
0.013350200000000001,3365.43
0.0133512,3199.8700000000003
0.0133523,3049.08
0.013353299999999999,2911.4
0.0133548,2726.34
0.013356300000000002,2563.48
0.0133579,2419.5
0.013359600000000001,2276.69
0.013361300000000001,2151.1200000000003
0.013363,2040.19
0.0133648,1941.8
0.0133665,1854.23
0.013368199999999998,1776.06
0.013369899999999999,1706.1
0.0133717,1643.33
0.0133738,1575.1
0.013375900000000001,1514.97
0.013378000000000001,1461.8500000000001
0.0133812,1393.36
0.0133843,1336.1000000000001
0.013387500000000002,1288.08
0.013390800000000001,1245.55
0.0133943,1209.3400000000001
0.013397699999999998,1179.56
0.0134023,1148.13
0.0134069,1124.58
0.0134123,1105.04
0.013417600000000002,1092.35
0.013423000000000001,1085.2900000000002
0.0134284,1083.0
0.013435299999999999,1085.9099999999999
0.0134422,1094.11
0.013452500000000001,1114.51
0.0134621,1140.52
0.0134744,1181.92
0.0134866,1230.68
0.013498900000000001,1285.96
0.0135111,1347.09
0.013523400000000001,1413.87
0.0135418,1524.41
0.0135541,1605.8300000000002
0.0135663,1694.85
0.013578600000000001,1794.44
0.013587400000000001,1876.2700000000002
0.013594,1947.47
0.013599000000000002,2011.0199999999998
0.0136032,2074.73
0.013606,2125.15
0.0136094,2199.53
0.013611400000000001,2253.1400000000003
0.0136135,2317.4199999999996
0.0136155,2396.86
0.0136168,2459.92
0.0136181,2535.44
0.0136194,2628.05
0.0136204,2712.9500000000003
0.0136212,2798.9500000000003
0.013622,2892.2799999999997
0.013622700000000001,3005.22
0.0136232,3095.13
0.0136237,3200.44
0.0136242,3325.6800000000003
0.0136246,3436.3
0.0136249,3543.8399999999997
0.0136253,3695.15
0.0136256,3826.72
0.0136259,3976.82
0.0136262,4148.780000000001
0.0136265,4346.339999999999
0.0136268,4573.929999999999
0.013627,4836.41
0.0136273,5139.79
0.013627499999999999,5367.73
0.013627700000000001,5618.67
0.013628000000000001,5965.34
0.0136282,6312.57
0.0136284,6697.89
0.0136286,7125.66
0.013628800000000002,7599.11
0.013629,8122.740000000001
0.0136293,8700.519999999999
0.013629500000000001,9337.05
0.0136297,10036.199999999999
0.0136299,10802.7
0.013630100000000001,11639.900000000001
0.0136303,12492.4
0.013630500000000002,13413.6
0.0136307,14407.2
0.0136309,15475.000000000002
0.0136311,16620.399999999998
0.013631299999999999,17843.8
0.013631500000000001,19147.4
0.0136317,20530.8
0.013632,22758.3
0.0136323,25161.899999999998
0.0136326,27735.5
0.0136329,30465.5
0.0136333,34319.2
0.013633900000000001,39857.1
0.0136348,49731.1
0.0136354,55308.0
0.0136357,58254.6
0.0136361,61709.2
0.013636500000000001,64324.899999999994
0.013636800000000001,66286.0
0.0136371,67606.2
0.0136374,68588.5
0.013637699999999999,69165.8
0.013637999999999999,69349.8
0.0136383,69135.2
0.0136386,68501.0
0.0136389,67493.3
0.0136392,66140.3
0.0136395,64455.9
0.0136398,62109.9
0.0136402,59310.600000000006
0.013640600000000001,55638.899999999994
0.0136411,50565.2
0.013642399999999999,37576.9
0.0136428,32703.000000000004
0.0136432,29479.899999999998
0.0136435,26552.899999999998
0.0136439,23825.9
0.0136441,22124.100000000002
0.0136443,20519.5
0.0136445,19012.100000000002
0.013644700000000001,17602.899999999998
0.013645000000000001,16149.0
0.0136452,14812.099999999999
0.0136455,13587.7
0.0136457,12740.6
0.0136458,11952.3
0.013646,11219.9
0.013646199999999999,10541.6
0.013646400000000001,9913.65
0.0136466,9334.46
0.013646799999999999,8766.54
0.013647000000000001,8185.45
0.0136472,7660.89
0.0136474,7188.64
0.0136477,6764.03
0.0136479,6383.19
0.013648100000000002,6041.44
0.0136483,5735.65
0.0136486,5462.01
0.0136488,5217.38
0.013649,4998.58
0.0136492,4823.0199999999995
0.0136494,4626.31
0.0136497,4452.51
0.0136499,4298.74
0.0136503,4100.17
0.0136507,3933.65
0.013651100000000001,3793.25
0.013651400000000001,3673.94
0.0136518,3571.91
0.0136523,3457.27
0.013652800000000001,3361.91
0.0136533,3279.6
0.0136541,3176.23
0.013654900000000001,3093.68
0.013655600000000002,3026.4500000000003
0.013656699999999999,2954.5
0.0136581,2880.62
0.013659,2844.2599999999998
0.0136607,2788.63
0.0136625,2749.69
0.0136652,2712.4700000000003
0.0136678,2692.34
0.0136714,2682.67
0.013675600000000001,2687.47
0.013682600000000001,2718.45
0.0136901,2769.45
0.0137026,2876.33
0.013717600000000002,3024.74
0.013739300000000001,3263.4500000000003
0.013759300000000002,3503.5
0.013786000000000001,3850.1
0.0138126,4226.49
0.0138393,4635.1
0.013866000000000002,5076.5599999999995
0.0138926,5552.780000000001
0.013919299999999999,6066.56
0.013946,6620.51
0.0139726,7217.51
0.0139993,7860.65
0.014026,8553.28
0.0140526,9299.01
0.0140793,10101.7
0.014106,10965.6
0.0141326,11895.199999999999
0.0141593,12895.300000000001
0.014186,13971.1
0.0142126,15128.1
0.0142393,16372.199999999999
0.014266000000000001,17709.9
0.0142926,19147.7
0.0143193,20692.9
0.014346000000000001,22353.100000000002
0.0143726,24136.199999999997
0.0143993,26050.6
0.014426000000000001,28105.1
0.0144526,30308.8
0.0144793,32671.0
0.014506,35201.4
0.0145326,37909.6
0.014559299999999999,40805.3
0.014586,43897.8
0.0146126,47196.2
0.0146393,50708.6
0.014665999999999998,54442.5
0.014692700000000001,58403.600000000006
0.0147193,62596.100000000006
0.014745999999999999,67021.7
0.014785999999999999,74110.1
0.014825999999999999,81669.2
0.014865999999999999,89719.20000000001
