E(MeV),xs(mb)
1.0e-11,178591.0
1.03223e-11,175799.0
1.06549e-11,173053.0
1.0998399999999998e-11,170348.0
1.13527e-11,167688.0
1.1718599999999999e-11,165069.0
1.2096199999999998e-11,162492.0
1.24861e-11,159955.0
1.2888399999999999e-11,157460.0
1.3303799999999998e-11,155003.0
1.37325e-11,152586.0
1.41751e-11,150206.0
1.4631799999999997e-11,147865.0
1.51034e-11,145561.0
1.5590099999999998e-11,143294.0
1.6092599999999998e-11,141062.0
1.66111e-11,138866.0
1.71465e-11,136704.0
1.7699e-11,134578.0
1.8269399999999998e-11,132485.0
1.88581e-11,130424.99999999999
1.94659e-11,128397.99999999999
2.00931e-11,126404.0
2.0740699999999998e-11,124441.0
2.1408999999999998e-11,122510.00000000001
2.2099099999999997e-11,120609.00000000001
2.28111e-11,118739.0
2.3546399999999998e-11,116897.99999999999
2.4305099999999997e-11,115087.0
2.50884e-11,113304.99999999999
2.5896799999999997e-11,111551.0
2.67315e-11,109826.0
2.75928e-11,108128.0
2.8482199999999998e-11,106457.0
2.93999e-11,104813.0
3.0347499999999995e-11,103194.99999999999
3.13253e-11,101603.0
3.2335e-11,100037.0
3.33769e-11,98496.0
3.44526e-11,96979.5
3.55627e-11,95487.7
3.67089e-11,94019.6
3.7891799999999997e-11,92575.40000000001
3.9113e-11,91154.2
4.0373400000000003e-11,89756.2
4.1674599999999996e-11,88380.4
4.3017399999999996e-11,87027.09999999999
4.440389999999999e-11,85695.4
4.58347e-11,84385.6
4.7311899999999994e-11,83096.59999999999
4.883639999999999e-11,81828.8
5.0410399999999995e-11,80581.3
5.20348e-11,79354.2
5.37119e-11,78146.9
5.54426e-11,76959.40000000001
5.7229499999999995e-11,75791.0
5.907359999999999e-11,74641.8
6.09775e-11,73511.2
6.29424e-11,72399.2
6.497099999999999e-11,71305.2
6.70645e-11,70229.3
6.9226e-11,69170.7
7.145659999999999e-11,68129.8
7.37596e-11,67105.7
7.61364e-11,66098.7
7.85902e-11,65108.0
8.11227e-11,64133.8
8.37372e-11,63175.600000000006
8.643549999999999e-11,62233.299999999996
8.922119999999998e-11,61306.399999999994
9.209619999999999e-11,60395.1
9.506439999999999e-11,59498.7
9.81277e-11,58617.4
1.01291e-10,57750.399999999994
1.04554e-10,56898.299999999996
1.07924e-10,56060.0
1.11402e-10,55236.1
1.1499200000000001e-10,54425.7
1.1869700000000001e-10,53629.2
1.22523e-10,52845.700000000004
1.26471e-10,52075.8
1.30547e-10,51318.5
1.34754e-10,50574.3
1.3909700000000002e-10,49842.399999999994
1.43579e-10,49123.200000000004
1.48207e-10,48416.0
1.52982e-10,47721.1
1.57913e-10,47037.7
1.6300100000000001e-10,46366.3
1.6861e-10,45662.700000000004
1.7441199999999999e-10,44972.0
1.80414e-10,44293.899999999994
1.8662200000000001e-10,43628.299999999996
1.93044e-10,42975.0
1.99687e-10,42333.7
2.0655800000000002e-10,41704.299999999996
2.1366600000000001e-10,41086.600000000006
2.2101799999999999e-10,40480.5
2.28624e-10,39885.6
2.3649100000000004e-10,39301.9
2.44629e-10,38729.1
2.5304700000000005e-10,38167.1
2.61755e-10,37615.7
2.70762e-10,37074.7
2.80079e-10,36544.0
2.8971700000000003e-10,36023.4
2.99687e-10,35512.8
3.09999e-10,35011.9
3.20667e-10,34520.6
3.31701e-10,34038.7
3.43115e-10,33566.2
3.54922e-10,33102.8
3.67136e-10,32648.4
3.79769e-10,32202.899999999998
3.9283800000000004e-10,31766.0
4.06356e-10,31337.7
4.20339e-10,30917.8
4.3480299999999996e-10,30506.199999999997
4.4976500000000005e-10,30102.600000000002
4.6524200000000006e-10,29707.1
4.82272e-10,29295.399999999998
4.999220000000001e-10,28892.5
5.182210000000001e-10,28498.100000000002
5.371870000000001e-10,28112.1
5.5685e-10,27734.2
5.77229e-10,27364.5
5.98358e-10,27002.7
6.202560000000001e-10,26648.7
6.4296e-10,26302.2
6.66491e-10,25963.2
6.908870000000001e-10,25631.6
7.16172e-10,25307.1
7.42387e-10,24989.7
7.69556e-10,24679.2
7.97725e-10,24375.399999999998
8.28673e-10,24061.0
8.60821e-10,23753.899999999998
8.942170000000001e-10,23453.8
9.28908e-10,23160.699999999997
9.64945e-10,22874.500000000004
1.0023800000000002e-9,22594.8
1.04127e-9,22321.7
1.0816600000000002e-9,22054.9
1.12363e-9,21794.3
1.16722e-9,21539.7
1.2150600000000001e-9,21277.499999999996
1.26488e-9,21021.7
1.31673e-9,20772.1
1.3707100000000001e-9,20528.7
1.42689e-9,20291.199999999997
1.4853900000000002e-9,20059.5
1.5462800000000002e-9,19833.5
1.60967e-9,19613.0
1.6792000000000002e-9,19386.7
1.7517400000000002e-9,19166.3
1.82741e-9,18951.4
1.90635e-9,18742.0
1.9887e-9,18538.0
2.07461e-9,18339.1
2.1688e-9,18135.7
2.26728e-9,17937.7
2.37023e-9,17745.0
2.47785e-9,17557.3
2.59036e-9,17374.6
2.7079800000000004e-9,17196.7
2.8369300000000005e-9,17015.3
2.9720200000000002e-9,16838.9
3.11354e-9,16667.3
3.2618e-9,16500.399999999998
3.42435e-9,16330.7
3.5950200000000003e-9,16165.8
3.77417e-9,16005.5
3.96227e-9,15849.7
4.159720000000001e-9,15698.4
4.37627e-9,15544.9
4.604090000000001e-9,15395.9
4.8437700000000005e-9,15251.2
5.095930000000001e-9,15110.699999999999
5.3725800000000005e-9,14968.6
5.66421e-9,14830.8
5.97171e-9,14697.0
6.30921e-9,14562.2
6.665790000000001e-9,14431.5
7.04252e-9,14304.8
7.45628e-9,14177.3
7.894370000000002e-9,14053.9
8.35818e-9,13934.4
8.86798e-9,13814.5
9.40888e-9,13698.4
9.98277e-9,13586.1
1.06141e-8,13473.699999999999
1.1285300000000001e-8,13365.0
1.1999e-8,13259.9
1.27849e-8,13154.9
1.36222e-8,13053.5
1.4544999999999999e-8,12952.4
1.55304e-8,12854.8
1.66176e-8,12757.7
1.77809e-8,12664.1
1.9066e-8,12571.1
2.04439e-8,12481.500000000002
2.19678e-8,12392.7
2.3605299999999998e-8,12307.300000000001
2.52522e-8,12230.2
2.5299999999999998e-8,12228.000000000002
2.72435e-8,12146.6
2.9398300000000003e-8,12066.1
3.17907e-8,11986.8
3.43778e-8,11910.7
3.72542e-8,11835.7
4.04565e-8,11762.1
4.4027300000000004e-8,11689.8
4.79132e-8,11620.6
5.22525e-8,11552.9
5.7105300000000004e-8,11486.7
6.25408e-8,11422.000000000002
6.863889999999999e-8,11358.900000000001
7.54911e-8,11297.5
8.32029e-8,11237.699999999999
9.18965e-8,11179.8
1.01714e-7,11123.6
1.1281799999999998e-7,11069.199999999999
1.2566399999999998e-7,11015.6
1.4027e-7,10964.0
1.56905e-7,10914.2
1.76256e-7,10865.6
1.98833e-7,10818.099999999999
2.24777e-7,10772.8
2.5518299999999996e-7,10728.800000000001
2.90929e-7,10686.199999999999
3.33089e-7,10645.1
3.82974e-7,10605.6
4.4313200000000003e-7,10567.1
5.149149999999999e-7,10530.5
6.021309999999999e-7,10495.099999999999
7.086e-7,10461.1
8.39204e-7,10428.599999999999
1.00021e-6,10397.6
1.30441e-6,10355.6
2.2526899999999998e-6,10284.3
4.8678499999999995e-6,10209.5
1.26203e-5,10141.0
4.421840000000001e-5,10051.4
0.000235878,9750.3
0.0007336500000000001,9079.94
0.00120345,8472.87
0.00128283,8330.98
0.0013176300000000002,8222.95
0.0013369599999999999,8147.05
0.00134099,8172.16
0.0013434,8237.18
0.0013449199999999999,8327.24
0.00134605,8445.73
0.00134693,8590.51
0.00134768,8775.04
0.00134818,8946.26
0.00134859,9129.099999999999
0.00134891,9308.51
0.0013492299999999999,9529.970000000001
0.00134956,9807.28
0.0013498000000000002,10063.7
0.0013500399999999998,10374.8
0.00135028,10757.2
0.00135044,11062.9
0.0013506,11419.6
0.00135076,11839.0
0.00135092,12335.5
0.00135107,12847.3
0.00135119,13355.300000000001
0.00135131,13938.900000000001
0.00135143,14610.7
0.00135155,15385.7
0.0013516399999999999,16044.5
0.0013517300000000002,16778.3
0.00135182,17595.7
0.00135191,18505.4
0.0013520000000000001,19493.2
0.00135208,20535.3
0.0013521700000000002,21682.7
0.00135225,22943.5
0.00135234,24326.0
0.00135242,25838.0
0.00135252,27735.0
0.00135262,29821.100000000002
0.00135271,32105.399999999998
0.00135281,34594.200000000004
0.0013529100000000001,37291.6
0.001353,40198.0
0.0013531,43310.5
0.00135323,47767.299999999996
0.00135332,51323.2
0.00135345,56312.9
0.00135365,64202.899999999994
0.00135403,80350.40000000001
0.00135423,87862.4
0.00135436,92381.7
0.00135448,96367.99999999999
0.00135459,99254.59999999999
0.0013547000000000001,101616.0
0.0013548,103224.99999999999
0.0013549,104360.99999999999
0.00135501,105068.99999999999
0.00135508,105160.00000000001
0.0013551899999999998,104779.0
0.00135529,103858.99999999999
0.0013553900000000002,102553.99999999999
0.00135553,99821.8
0.00135566,96302.1
0.0013557999999999999,92198.3
0.0013559300000000002,87568.59999999999
0.00135613,80068.40000000001
0.00135659,62283.200000000004
0.0013567800000000001,55089.49999999999
0.00135691,50610.200000000004
0.0013570400000000001,46432.1
0.00135716,42580.9
0.0013572599999999999,39913.8
0.00135736,37438.0
0.00135747,34796.299999999996
0.00135757,32737.9
0.0013576600000000001,30851.5
0.0013577600000000002,29128.699999999997
0.00135785,27559.5
0.00135795,26133.600000000002
0.00135805,24840.5
0.0013581399999999999,23669.5
0.00135826,22334.399999999998
0.00135838,21256.7
0.00135849,20298.2
0.0013586,19444.9
0.0013587100000000002,18684.3
0.00135886,17795.0
0.0013590100000000001,17026.8
0.0013591599999999999,16359.900000000001
0.00135931,15777.699999999999
0.0013594599999999998,15247.0
0.0013596200000000002,14763.5
0.00135986,14143.2
0.0013601099999999999,13623.099999999999
0.00136035,13181.300000000001
0.00136067,12686.800000000001
0.0013609899999999999,12275.9
0.0013613100000000001,11929.4
0.0013618,11501.699999999999
0.0013622600000000001,11172.599999999999
0.0013628499999999999,10827.199999999999
0.00136345,10550.3
0.00136404,10323.9
0.00136471,10117.400000000001
0.0013657900000000002,9850.960000000001
0.0013668800000000002,9648.52
0.00136805,9479.74
0.0013696600000000002,9303.02
0.0013715900000000002,9147.47
0.00137385,9015.4
0.00137659,8899.36
0.0013814200000000002,8762.650000000001
0.00138786,8650.34
0.00139624,8560.380000000001
0.0014116999999999999,8463.710000000001
0.00144263,8360.87
0.00151157,8233.359999999999
0.00171248,7978.240000000001
0.00275561,6826.29
0.00295887,6565.959999999999
0.0030719,6382.259999999999
0.00311376,6312.01
0.00311773,6310.5
0.00312506,6323.299999999999
0.00312979,6363.09
0.00313222,6412.91
0.0031337100000000005,6467.21
0.0031350099999999997,6544.5599999999995
0.0031358600000000003,6621.17
0.0031367,6736.25
0.00313728,6856.05
0.00313767,6966.47
0.00313806,7114.67
0.00313841,7293.38
0.0031387100000000003,7501.79
0.00313894,7700.040000000001
0.00313917,7943.92
0.0031394,8243.79
0.00313963,8611.380000000001
0.00313978,8900.35
0.0031399400000000004,9229.1
0.00314009,9601.6
0.00314024,10021.800000000001
0.0031404000000000002,10493.300000000001
0.00314055,11019.4
0.0031406999999999997,11602.699999999999
0.00314086,12268.8
0.00314102,12999.0
0.00314112,13521.2
0.00314133,14648.2
0.00314154,15877.1
0.0031417899999999998,17448.7
0.0031425299999999997,22375.2
0.0031427800000000004,23907.4
0.00314302,25281.4
0.00314319,26113.8
0.00314336,26815.600000000002
0.00314354,27385.899999999998
0.00314372,27780.7
0.00314386,27959.399999999998
0.003144,28021.5
0.00314417,27926.600000000002
0.00314432,27703.5
0.0031444999999999997,27265.7
0.00314467,26667.9
0.00314484,25934.6
0.00314504,24943.5
0.00314526,23671.4
0.0031454900000000004,22200.199999999997
0.00314622,17313.4
0.0031464400000000003,15955.3
0.00314663,14844.699999999999
0.00314682,13814.0
0.00314701,12870.4
0.00314717,12107.2
0.0031473200000000003,11497.900000000001
0.0031474700000000003,10943.0
0.00314762,10440.9
0.00314776,9989.08
0.00314791,9584.630000000001
0.0031480600000000003,9224.3
0.0031482000000000003,8904.61
0.0031483500000000003,8616.83
0.00314858,8242.900000000001
0.00314881,7937.41
0.00314904,7688.6
0.00314927,7486.049999999999
0.0031495000000000004,7320.839999999999
0.00314983,7130.77
0.0031501700000000003,6986.81
0.00315068,6829.39
0.0031511200000000003,6728.11
0.00315169,6633.83
0.00315253,6533.820000000001
0.0031538,6435.58
0.00315521,6365.4400000000005
0.00315744,6296.38
0.0031618700000000002,6222.74
0.00316844,6164.85
0.00320832,5944.78
0.00322662,5812.59
0.00323881,5695.65
0.00324796,5583.83
0.00325711,5441.2
0.00326283,5330.04
0.00326855,5196.0
0.00327426,5032.41
0.00327969,4844.610000000001
0.00328742,4547.44
0.00328947,4491.150000000001
0.00329077,4476.759999999999
0.0032917800000000002,4486.18
0.0032925,4509.83
0.00329323,4553.47
0.0032939500000000003,4624.65
0.0032945,4704.01
0.00329507,4816.6
0.00329546,4913.66
0.00329584,5032.77
0.00329622,5178.84
0.0032966000000000002,5358.16
0.00329689,5519.26
0.00329717,5707.82
0.00329736,5851.33
0.00329764,6094.38
0.00329793,6380.4800000000005
0.00329814,6628.59
0.0032983500000000002,6910.389999999999
0.0032985600000000003,7231.2300000000005
0.0032987700000000003,7597.41
0.00329898,8016.400000000001
0.0032992,8496.92
0.00329941,9049.300000000001
0.00329955,9463.32
0.0032997,9951.01
0.00329986,10527.3
0.00330002,11170.199999999999
0.00330018,11887.7
0.0033003399999999997,12688.699999999999
0.0033005,13582.8
0.0033006600000000004,14580.3
0.00330082,15692.3
0.0033009400000000005,16654.100000000002
0.00330108,17799.3
0.0033012199999999997,19052.3
0.0033013599999999997,20421.2
0.00330149,21914.1
0.00330163,23538.7
0.00330178,25508.0
0.00330194,27659.2
0.00330209,30001.1
0.00330224,32540.6
0.00330239,35283.4
0.00330255,38232.1
0.0033027000000000004,41387.0
0.00330285,44744.799999999996
0.003303,48299.5
0.0033032300000000003,53975.4
0.00330346,60014.0
0.00330377,68495.0
0.00330435,85078.6
0.00330469,94533.79999999999
0.00330491,99971.09999999999
0.0033051300000000003,104874.0
0.00330537,109601.0
0.00330554,112344.0
0.0033057200000000003,114552.00000000001
0.00330589,116191.0
0.00330605,117206.00000000001
0.00330627,117702.0
0.00330648,117279.0
0.0033066700000000003,116165.0
0.00330686,114396.00000000001
0.0033070499999999997,112023.0
0.00330723,109111.0
0.00330749,104516.00000000001
0.00330781,97764.4
0.00330823,87827.59999999999
0.00330875,75461.40000000001
0.00330903,69175.6
0.0033093,63240.99999999999
0.00330951,58922.5
0.0033097400000000003,54614.700000000004
0.0033099699999999998,50650.899999999994
0.0033102,47032.99999999999
0.0033104300000000005,43752.6
0.00331066,40794.0
0.0033108900000000004,38135.9
0.0033111100000000004,35754.8
0.00331134,33625.1
0.0033115700000000002,31721.6
0.0033117999999999997,30019.5
0.003312,28689.6
0.00331224,27216.399999999998
0.00331249,25902.0
0.0033127300000000003,24725.7
0.00331297,23669.4
0.00331322,22717.399999999998
0.00331358,21456.2
0.00331383,20710.5
0.00331421,19672.6
0.00331459,18765.5
0.0033149700000000004,17966.8
0.00331535,17258.8
0.00331573,16627.1
0.0033163100000000003,15798.6
0.00331688,15086.699999999999
0.00331745,14469.099999999999
0.00331802,13928.7
0.00331878,13305.6
0.00331955,12772.6
0.0033203800000000004,12269.2
0.0033213,11799.2
0.0033222100000000004,11395.3
0.00332313,11044.8
0.0033242799999999998,10664.1
0.00332567,10276.6
0.00332706,9950.5
0.00332846,9672.57
0.00333006,9399.789999999999
0.00333187,9138.91
0.0033345799999999997,8819.08
0.0033373499999999998,8558.630000000001
0.00334021,8339.320000000002
0.00334402,8104.25
0.0033485900000000002,7883.66
0.00335316,7709.450000000001
0.00335926,7527.05
0.00336536,7384.26
0.00337451,7219.48
0.00338061,7132.46
0.00339433,6980.36
0.0034126300000000003,6835.849999999999
0.00343702,6700.490000000001
0.00347056,6569.99
0.00351935,6435.74
0.00359864,6278.74
0.00372899,6082.24
0.00400915,5731.09
0.00457837,5044.37
0.00487655,4655.41
0.00511679,4314.35
0.00530842,4017.5099999999998
0.00548388,3721.98
0.00564687,3422.07
0.00576485,3186.41
0.00587763,2944.29
0.0059882799999999995,2688.4
0.00609405,2425.5499999999997
0.006189269999999999,2172.4199999999996
0.00630305,1859.15
0.006324690000000001,1809.1999999999998
0.006333350000000001,1796.1000000000001
0.0063389100000000006,1793.05
0.00634509,1800.02
0.0063488,1814.47
0.00635159,1834.96
0.0063536700000000005,1859.49
0.00635551,1891.55
0.00635666,1918.85
0.0063578,1954.3
0.0063589399999999996,2001.28
0.0063596899999999994,2040.3500000000001
0.00636043,2088.76
0.00636117,2149.87
0.0063617299999999995,2207.03
0.00636222,2268.8
0.00636269,2338.96
0.006363150000000001,2424.65
0.00636346,2492.76
0.0063637699999999995,2571.77
0.00636408,2663.94
0.00636439,2771.9900000000002
0.00636465,2878.73
0.0063649100000000005,3001.58
0.00636517,3143.17
0.006365440000000001,3306.39
0.0063657,3494.4500000000003
0.0063659,3653.84
0.00636609,3830.61
0.00636629,4026.32
0.00636649,4242.47
0.00636674,4555.0199999999995
0.006367,4907.3099999999995
0.0063672500000000005,5301.95
0.006367510000000001,5740.9
0.00636776,6225.3
0.00636797,6655.490000000001
0.00636822,7203.92
0.00636847,7792.0
0.0063687100000000005,8416.01
0.00636908,9407.439999999999
0.0063700200000000005,12039.7
0.00637042,13090.0
0.00637077,13919.6
0.0063710600000000004,14535.7
0.0063713,14951.5
0.00637157,15324.4
0.00637184,15584.199999999999
0.00637211,15723.0
0.00637229,15745.3
0.006372480000000001,15707.0
0.006372760000000001,15536.7
0.00637303,15250.300000000001
0.0063733,14852.099999999999
0.0063735400000000005,14415.500000000002
0.00637383,13775.699999999999
0.00637415,12986.3
0.006374500000000001,12056.500000000002
0.00637554,9119.59
0.00637591,8128.15
0.00637616,7506.820000000001
0.00637641,6923.129999999999
0.00637665,6380.47
0.0063769000000000004,5888.14
0.00637714,5438.030000000001
0.006377379999999999,5029.68
0.0063776300000000005,4661.84
0.00637787,4332.57
0.0063780799999999995,4081.0199999999995
0.00637827,3872.97
0.00637846,3684.02
0.00637864,3512.76
0.00637883,3357.84
0.00637909,3174.35
0.00637934,3014.38
0.00637959,2875.04
0.0063798399999999995,2753.65
0.0063801199999999995,2636.69
0.0063804299999999994,2526.62
0.00638074,2432.9900000000002
0.00638105,2352.97
0.00638136,2284.17
0.006381820000000001,2197.86
0.0063822900000000005,2127.38
0.00638278,2065.44
0.00638312,2029.07
0.0063838,1968.0200000000002
0.00638448,1918.8799999999999
0.00638545,1863.52
0.00638631,1824.52
0.00638746,1783.22
0.00638919,1736.82
0.00639112,1699.1799999999998
0.006392470000000001,1678.61
0.00639518,1646.78
0.00639912,1613.96
0.00640306,1590.13
0.00640909,1563.1699999999998
0.00641588,1540.91
0.006422880000000001,1524.5500000000002
0.00643009,1514.99
0.006433690000000001,1513.8400000000001
0.00643931,1519.18
0.00644353,1531.61
0.00644704,1550.6599999999999
0.0064502100000000005,1578.05
0.00645231,1604.11
0.0064541600000000005,1634.11
0.0064557500000000006,1666.97
0.006457340000000001,1708.42
0.00645893,1761.25
0.00646032,1819.8600000000001
0.00646151,1882.24
0.0064624,1938.5300000000002
0.00646329,2005.1000000000001
0.006464190000000001,2084.5
0.006464920000000001,2161.39
0.0064655699999999995,2240.85
0.00646621,2333.12
0.00646686,2441.09
0.00646751,2568.58
0.006467939999999999,2666.88
0.00646838,2778.04
0.00646881,2904.46
0.00646924,3049.17
0.00646967,3215.9900000000002
0.00647,3358.5
0.00647032,3518.67
0.0064706500000000005,3699.57
0.00647097,3904.84
0.0064713,4138.9
0.0064715400000000005,4339.25
0.0064718200000000005,4590.96
0.006472100000000001,4875.19
0.00647237,5196.900000000001
0.0064725799999999995,5466.15
0.00647279,5762.25
0.006473,6088.0599999999995
0.0064732,6446.589999999999
0.006473410000000001,6841.05
0.00647362,7274.78
0.00647379,7668.78
0.00647396,8094.509999999999
0.006474140000000001,8554.04
0.0064743100000000005,9049.34
0.00647448,9582.44
0.00647466,10155.099999999999
0.00647483,10769.1
0.00647509,11770.6
0.0064753499999999995,12872.1
0.00647561,14075.800000000001
0.00647587,15381.499999999998
0.006476130000000001,16786.3
0.00647639,18284.4
0.00647666,19974.8
0.0064770800000000005,22653.1
0.00647791,28221.699999999997
0.00647832,30897.0
0.006478640000000001,32753.199999999997
0.006478950000000001,34419.4
0.0064791499999999995,35398.6
0.00647944,36542.7
0.00647973,37423.3
0.0064800100000000005,38014.8
0.00648022,38257.6
0.006480400000000001,38324.9
0.00648062,38236.5
0.006480850000000001,37953.6
0.00648108,37459.6
0.0064813200000000005,36771.6
0.006481550000000001,35903.200000000004
0.0064817799999999995,34871.5
0.00648209,33275.4
0.00648241,31475.0
0.00648282,28850.5
0.00648386,21943.7
0.00648428,19320.2
0.0064845499999999995,17675.399999999998
0.006484810000000001,16224.0
0.006485070000000001,14868.4
0.00648533,13612.699999999999
0.00648559,12458.499999999998
0.0064858500000000005,11404.9
0.00648602,10749.1
0.0064862,10129.2
0.00648638,9551.96
0.00648656,9015.49
0.00648673,8517.810000000001
0.00648691,8056.82
0.00648709,7630.35
0.00648727,7236.25
0.0064875,6754.570000000001
0.00648773,6346.36
0.00648795,5977.66
0.00648818,5644.57
0.006488400000000001,5343.54
