E(MeV),xs(mb)
1.0e-11,4.41726e6
1.03223e-11,4.34775e6
1.06549e-11,4.27936e6
1.0998399999999998e-11,4.21202e6
1.13527e-11,4.1457699999999995e6
1.1718599999999999e-11,4.0805300000000005e6
1.2096199999999998e-11,4.0163399999999995e6
1.24861e-11,3.95314e6
1.2888399999999999e-11,3.89096e6
1.3303799999999998e-11,3.82973e6
1.37325e-11,3.76949e6
1.41751e-11,3.71018e6
1.4631799999999997e-11,3.65182e6
1.51034e-11,3.59435e6
1.5590099999999998e-11,3.53781e6
1.6092599999999998e-11,3.48214e6
1.66111e-11,3.42737e6
1.71465e-11,3.37344e6
1.7699e-11,3.32038e6
1.8269399999999998e-11,3.26813e6
1.88581e-11,3.21672e6
1.94659e-11,3.16611e6
2.00931e-11,3.1163e6
2.0740699999999998e-11,3.06727e6
2.1408999999999998e-11,3.01902e6
2.2099099999999997e-11,2.97152e6
2.28111e-11,2.92478e6
2.3546399999999998e-11,2.87876e6
2.4305099999999997e-11,2.83348e6
2.50884e-11,2.78889e6
2.5896799999999997e-11,2.74503e6
2.67315e-11,2.70184e6
2.75928e-11,2.65934e6
2.8482199999999998e-11,2.61749e6
2.93999e-11,2.57632e6
3.0347499999999995e-11,2.53579e6
3.13253e-11,2.4959e6
3.2335e-11,2.45663e6
3.33769e-11,2.41799e6
3.44526e-11,2.37995e6
3.55627e-11,2.34251e6
3.67089e-11,2.30566e6
3.7891799999999997e-11,2.26939e6
3.9113e-11,2.23369e6
4.0373400000000003e-11,2.19855e6
4.1674599999999996e-11,2.16396e6
4.3017399999999996e-11,2.12993e6
4.440389999999999e-11,2.0964200000000002e6
4.58347e-11,2.06344e6
4.7311899999999994e-11,2.03098e6
4.883639999999999e-11,1.99904e6
5.0410399999999995e-11,1.96759e6
5.20348e-11,1.93664e6
5.37119e-11,1.90617e6
5.54426e-11,1.87619e6
5.7229499999999995e-11,1.84668e6
5.907359999999999e-11,1.81763e6
6.09775e-11,1.78904e6
6.29424e-11,1.7609e6
6.497099999999999e-11,1.7332e6
6.70645e-11,1.70594e6
6.9226e-11,1.67911e6
7.145659999999999e-11,1.6527e6
7.37596e-11,1.6267e6
7.61364e-11,1.60112e6
7.85902e-11,1.57593e6
8.11227e-11,1.55115e6
8.37372e-11,1.52675e6
8.643549999999999e-11,1.50274e6
8.922119999999998e-11,1.4791e6
9.209619999999999e-11,1.45584e6
9.506439999999999e-11,1.43295e6
9.81277e-11,1.41041e6
1.01291e-10,1.38823e6
1.04554e-10,1.3664e6
1.07924e-10,1.34491e6
1.11402e-10,1.32376e6
1.1499200000000001e-10,1.30294e6
1.1869700000000001e-10,1.28245e6
1.22523e-10,1.26228e6
1.26471e-10,1.24244e6
1.30547e-10,1.2229e6
1.34754e-10,1.20367e6
1.3909700000000002e-10,1.18474e6
1.43579e-10,1.16611e6
1.48207e-10,1.14778e6
1.52982e-10,1.12973e6
1.57913e-10,1.11197e6
1.6300100000000001e-10,1.09449e6
1.68254e-10,1.07727e6
1.73676e-10,1.06034e6
1.79274e-10,1.0436700000000001e6
1.8505000000000002e-10,1.0272600000000001e6
1.91014e-10,1.01111e6
1.97169e-10,995217.0000000001
2.03524e-10,979570.0
2.1008200000000003e-10,964173.0000000001
2.16853e-10,949015.0
2.2384e-10,934099.0
2.31055e-10,919415.0
2.385e-10,904965.0
2.46187e-10,890739.0
2.5412e-10,876741.0
2.6231e-10,862960.0
2.70762e-10,849399.0
2.7948900000000003e-10,836049.0
2.88494e-10,822912.0
2.9779300000000004e-10,809978.0000000001
3.07388e-10,797252.0
3.1729500000000004e-10,784722.0
3.27519e-10,772394.0
3.38075e-10,760256.0
3.4896900000000003e-10,748312.0
3.6021600000000004e-10,736554.0
3.7182300000000004e-10,724984.0
3.83807e-10,713593.0
3.96174e-10,702384.0
4.08943e-10,691349.0
4.2212e-10,680491.0
4.3572499999999996e-10,669801.0
4.4976500000000005e-10,659282.0
4.6426100000000007e-10,648926.0
4.79221e-10,638736.0
4.94666e-10,628704.0
5.10605e-10,618832.0
5.270620000000001e-10,609114.0
5.440450000000001e-10,599551.0
5.6158e-10,590136.0
5.796750000000001e-10,580872.0
5.98358e-10,571751.0
6.176389999999999e-10,562777.0
6.37545e-10,553942.0
6.58089e-10,545247.0
6.79298e-10,536689.0
7.01188e-10,528266.0
7.237860000000001e-10,519975.0
7.47109e-10,511815.99999999994
7.71188e-10,503784.0
7.960380000000001e-10,495880.0
8.21693e-10,488099.0
8.48171e-10,480442.00000000006
8.75507e-10,472904.00000000006
9.037190000000002e-10,465486.0
9.32845e-10,458185.0
9.62904e-10,450999.0
9.93937e-10,443925.00000000006
1.0259700000000001e-9,436964.00000000006
1.05903e-9,430112.0
1.09316e-9,423367.99999999994
1.12839e-9,416730.0
1.16475e-9,410196.99999999994
1.2022900000000002e-9,403767.00000000006
1.2410300000000002e-9,397438.0
1.28103e-9,391209.0
1.3223100000000002e-9,385078.0
1.36492e-9,379043.0
1.4089000000000002e-9,373104.0
1.4543100000000001e-9,367258.0
1.5011699999999999e-9,361505.0
1.5495600000000002e-9,355842.0
1.5994900000000002e-9,350268.0
1.6510400000000001e-9,344782.0
1.7042400000000001e-9,339383.0
1.75917e-9,334068.0
1.81585e-9,328837.0
1.87438e-9,323689.0
1.9347700000000003e-9,318622.0
1.99713e-9,313634.0
2.06148e-9,308726.0
2.1279200000000002e-9,303894.0
2.19649e-9,299139.0
2.26728e-9,294458.0
2.3403400000000002e-9,289852.0
2.4157700000000002e-9,285317.0
2.49362e-9,280855.0
2.5739800000000002e-9,276462.0
2.65692e-9,272139.0
2.7425500000000002e-9,267883.0
2.8309300000000003e-9,263696.0
2.92217e-9,259573.0
3.01633e-9,255516.0
3.11354e-9,251521.99999999997
3.21387e-9,247592.0
3.3174500000000004e-9,243724.0
3.42435e-9,239916.00000000003
3.53471e-9,236167.99999999997
3.6486100000000003e-9,232480.00000000003
3.7662000000000005e-9,228849.0
3.88757e-9,225276.0
4.01286e-9,221759.0
4.14217e-9,218297.0
4.2756600000000005e-9,214889.99999999997
4.41344e-9,211537.0
4.55568e-9,208236.0
4.7024800000000005e-9,204987.0
4.85404e-9,201789.0
5.01045e-9,198643.0
5.17193e-9,195545.0
5.338590000000001e-9,192496.0
5.510650000000001e-9,189495.0
5.688220000000001e-9,186542.0
5.871540000000001e-9,183634.0
6.06075e-9,180773.0
6.256080000000001e-9,177957.0
6.4576700000000005e-9,175185.0
6.665790000000001e-9,172457.0
6.8805900000000005e-9,169772.0
7.1023400000000005e-9,167128.0
7.33121e-9,164527.0
7.56748e-9,161966.0
7.81133e-9,159447.0
8.06308e-9,156966.0
8.32291e-9,154525.0
8.59114e-9,152122.0
8.86798e-9,149757.0
9.15378e-9,147429.0
9.44875e-9,145138.0
9.753270000000001e-9,142882.0
1.0067600000000001e-8,140663.0
1.0392e-8,138478.0
1.07269e-8,136328.0
1.10726e-8,134211.0
1.1429400000000001e-8,132129.0
1.17978e-8,130078.0
1.21779e-8,128060.0
1.25704e-8,126074.0
1.29755e-8,124119.0
1.33937e-8,122195.00000000001
1.3825300000000001e-8,120300.99999999999
1.42708e-8,118436.00000000001
1.4730700000000002e-8,116602.0
1.52054e-8,114795.0
1.56954e-8,113018.0
1.62012e-8,111267.99999999999
1.67233e-8,109546.00000000001
1.72623e-8,107851.00000000001
1.78185e-8,106183.0
1.83928e-8,104541.0
1.89855e-8,102925.0
1.9597400000000002e-8,101335.0
2.02289e-8,99770.0
2.0880800000000003e-8,98230.0
2.15537e-8,96714.90000000001
2.2248299999999998e-8,95223.8
2.2965200000000002e-8,93756.79999999999
2.37054e-8,92312.99999999999
2.4469300000000002e-8,90892.5
2.52522e-8,89504.0
2.5299999999999998e-8,89421.40000000001
2.61154e-8,88046.29999999999
2.69569e-8,86692.7
2.7825700000000004e-8,85359.9
2.8722400000000002e-8,84047.5
2.9648e-8,82754.9
3.06034e-8,81481.99999999999
3.1589700000000004e-8,80228.3
3.26077e-8,78993.90000000001
3.36586e-8,77778.2
3.47432e-8,76581.59999999999
3.58629e-8,75403.59999999999
3.70185e-8,74244.4
3.8211599999999997e-8,73103.5
3.94429e-8,71981.09999999999
4.07141e-8,70876.5
4.20261e-8,69789.8
4.33805e-8,68720.3
4.4778399999999994e-8,67668.0
4.622150000000001e-8,66632.3
4.7710999999999996e-8,65613.2
4.92486e-8,64610.0
5.0835600000000004e-8,63622.8
5.2474e-8,62651.1
5.41649e-8,61694.8
5.59105e-8,60753.5
5.77122e-8,59827.1
5.95722e-8,58915.2
6.149180000000001e-8,58017.8
6.347360000000001e-8,57134.5
6.5519e-8,56265.4
6.76305e-8,55409.8
6.980990000000001e-8,54567.9
7.20597e-8,53739.100000000006
7.43818e-8,52923.299999999996
7.6779e-8,52120.3
7.92531e-8,51330.0
8.18073e-8,50552.200000000004
8.44435e-8,49786.700000000004
8.716490000000001e-8,49033.2
8.99737e-8,48291.5
9.28735e-8,47561.200000000004
9.58662e-8,46842.4
9.89558e-8,46135.1
1.0214499999999999e-7,45439.2
1.0543699999999999e-7,44754.3
1.0883400000000001e-7,44080.3
1.12342e-7,43416.6
1.15962e-7,42763.1
1.19699e-7,42119.799999999996
1.23556e-7,41487.0
1.27538e-7,40864.6
1.3164800000000002e-7,40252.4
1.35891e-7,39649.6
1.4027e-7,39056.0
1.4479e-7,38471.1
1.49456e-7,37895.6
1.54273e-7,37329.4
1.59244e-7,36772.9
1.6437600000000002e-7,36225.4
1.7003299999999997e-7,35650.4
1.75884e-7,35084.200000000004
1.8155099999999998e-7,34561.6
1.87403e-7,34047.299999999996
1.93441e-7,33542.1
1.99676e-7,33045.7
2.0654699999999998e-7,32525.0
2.13654e-7,32012.100000000002
2.21007e-7,31506.6
2.2812800000000002e-7,31040.100000000002
2.3548e-7,30581.7
2.43069e-7,30131.899999999998
2.50902e-7,29689.899999999998
2.59536e-7,29225.699999999997
2.68467e-7,28767.999999999996
2.77705e-7,28316.8
2.86654e-7,27900.9
2.95893e-7,27492.800000000003
3.0542699999999997e-7,27092.7
3.15937e-7,26673.100000000002
3.2680899999999997e-7,26259.3
3.3805499999999997e-7,25850.6
3.4895e-7,25472.899999999998
3.60195e-7,25102.1
3.71803e-7,24739.0
3.8378399999999996e-7,24382.899999999998
3.96991e-7,24008.9
4.1152199999999997e-7,23616.3
4.2568299999999996e-7,23251.6
4.394e-7,22915.199999999997
4.5356099999999997e-7,22585.8
4.68177e-7,22263.7
4.842869999999999e-7,21926.100000000002
5.02013e-7,21572.100000000002
5.20386e-7,21222.2
5.38293e-7,20897.600000000002
5.55642e-7,20599.6
5.73547e-7,20308.8
5.93283e-7,20004.8
6.149989999999999e-7,19686.2
6.37507e-7,19370.9
6.59445e-7,19077.8
6.806979999999999e-7,18807.899999999998
7.0115e-7,18562.0
7.23743e-7,18304.4
7.502349999999999e-7,18017.2
7.77692e-7,17733.1
8.061579999999999e-7,17452.1
8.33899e-7,17191.399999999998
8.58954e-7,16968.2
8.86633e-7,16734.8
9.19087e-7,16474.8
9.52724e-7,16217.999999999998
9.83429e-7,15994.900000000001
1.01367e-6,15787.3
1.04978e-6,15553.9
1.10256e-6,15233.000000000002
1.16611e-6,14871.8
1.2333199999999998e-6,14517.3
1.30441e-6,14170.7
1.38926e-6,13801.000000000002
1.51108e-6,13322.8
1.63216e-6,12898.400000000001
1.82573e-6,12322.4
2.02795e-6,11802.6
2.2844699999999995e-6,11254.800000000001
2.5375e-6,10793.699999999999
2.83845e-6,10340.9
3.10914e-6,9981.56
3.4778799999999996e-6,9573.119999999999
3.8631e-6,9204.91
4.38222e-6,8799.78
4.8678499999999995e-6,8479.41
5.521989999999999e-6,8124.8
6.13363e-6,7848.35
7.00695e-6,7523.5
7.94854e-6,7246.679999999999
9.07983e-6,6978.22
1.02283e-5,6751.53
1.1521500000000001e-5,6555.21
1.3254200000000001e-5,6348.7
1.4723000000000001e-5,6216.75
1.65845e-5,6083.179999999999
1.85514e-5,5979.5
2.11928e-5,5883.67
2.4379900000000004e-5,5821.61
2.67258e-5,5801.31
3.05295e-5,5812.09
3.36752e-5,5848.99
3.7669e-5,5931.24
4.18434e-5,6050.469999999999
4.6806000000000006e-5,6242.16
5.12671e-5,6450.700000000001
5.61562e-5,6728.73
6.10806e-5,7053.740000000001
6.551260000000001e-5,7396.4400000000005
7.026620000000001e-5,7813.43
7.43162e-5,8219.91
7.80491e-5,8637.29
8.19735e-5,9125.63
8.6091e-5,9703.609999999999
8.91619e-5,10181.1
9.23378e-5,10723.0
9.563150000000001e-5,11342.699999999999
9.834890000000001e-5,11900.1
0.00010185200000000001,12698.1
0.00010474600000000002,13425.0
0.000107723,14248.0
0.000110784,15180.800000000001
0.000113931,16252.9
0.000116354,17162.3
0.00011966000000000002,18544.2
0.000122198,19724.600000000002
0.000123922,20592.5
0.00012655700000000001,22044.800000000003
0.000129242,23686.600000000002
0.000131065,24913.2
0.000132914,26259.199999999997
0.000134789,27740.7
0.000136691,29376.000000000004
0.000138619,31187.2
0.00014057500000000002,33202.6
0.000142558,35449.799999999996
0.00014457,37973.1
0.000146609,40813.1
0.00014816000000000002,43192.399999999994
0.000149726,45806.1
0.000151307,48689.9
0.000152902,51886.1
0.00015452,55452.3
0.00015615300000000002,59427.6
0.00015780200000000002,63888.5
0.000159466,68908.6
0.00016059,72638.0
0.00016171500000000002,76670.7
0.00016285600000000001,81104.5
0.000163997,85924.6
0.000165154,91254.4
0.00016631100000000001,97083.5
0.00016748400000000002,103570.0
0.000168657,110687.0
0.000169847,118663.00000000001
0.000171036,127533.99999999999
0.00017194100000000003,134944.0
0.00017284600000000002,142999.0
0.000173755,151818.0
0.000174673,161542.0
0.00017559000000000002,172186.0
0.000176517,184026.0
0.000177447,197141.0
0.000178378,211640.0
0.00017929,227412.0
0.000180203,244956.0
0.000181122,264664.0
0.000181742,279297.0
0.00018236300000000003,295124.0
0.000182983,312274.0
0.000183604,330891.0
0.00018422400000000003,351141.0
0.000184845,373211.0
0.00018546600000000002,397315.0
0.000186086,423696.0
0.000186707,452635.0
0.00018732700000000002,484450.99999999994
0.000187948,519513.0
0.00018856800000000001,558244.0
0.000189189,601134.0
0.000189654,636364.0
0.00019012,674517.0
0.000190585,715892.0
0.000191051,760820.0
0.000191516,809670.0
0.00019198200000000002,862851.0
0.000192447,920813.0000000001
0.000192912,984052.0
0.00019337800000000002,1.05311e6
0.00019384300000000002,1.12857e6
0.000194309,1.21106e6
0.00019477400000000002,1.30125e6
0.00019524,1.3998e6
0.000195705,1.50741e6
0.00019617000000000001,1.6247e6
0.00019663600000000003,1.75224e6
0.000197101,1.89042e6
0.000197567,2.03939e6
0.000198032,2.19891e6
0.000198715,2.45027e6
0.000199506,2.76079e6
0.000200607,3.19716e6
0.00020107300000000002,3.3681e6
0.000201538,3.52132e6
0.00020200399999999999,3.64962e6
0.00020231400000000001,3.71792e6
0.00020262400000000002,3.77038e6
0.00020292200000000002,3.80452e6
0.00020320800000000002,3.82149e6
0.000203375,3.82409e6
0.00020371,3.81294e6
0.000204045,3.78055e6
0.000204432,3.71839e6
0.000204757,3.64712e6
0.000205246,3.51253e6
0.00020573500000000002,3.3518e6
0.00020622400000000002,3.17313e6
0.00020797,2.49541e6
0.00020851700000000002,2.29481e6
0.00020906400000000002,2.10659e6
0.000209611,1.93226e6
0.00021016400000000002,1.77089e6
0.00021071900000000003,1.62331e6
0.000211274,1.48963e6
0.00021182900000000002,1.36889e6
0.000212384,1.26002e6
0.00021294100000000002,1.16148e6
0.00021350400000000002,1.07194e6
0.00021406700000000002,991316.0
0.00021463000000000002,918636.0
0.000215192,853028.0
0.000215755,793705.0
0.00021632600000000003,739249.0
0.000216897,689894.0
0.000217467,645073.0
0.00021803800000000002,604286.0
0.000218609,567093.0
0.00021918500000000002,532803.0
0.000219764,501294.00000000006
0.00022034300000000001,472421.0
0.00022092100000000004,445912.00000000006
0.0002215,421525.0
0.00022227700000000003,391751.0
0.00022306,364800.0
0.00022384200000000003,340507.0
0.000224625,318543.0
0.00022541300000000002,298492.0
0.00022620700000000002,280149.0
0.00022700000000000002,263446.0
0.00022779400000000002,248203.0
0.00022859300000000003,234191.0
0.00022939800000000002,221268.00000000003
0.00023020299999999998,209350.0
0.00023100800000000002,198336.0
0.000231818,188120.0
0.00023263500000000002,178651.0
0.000233859,165772.0
0.00023508900000000004,154204.0
0.000236331,143705.0
0.000237572,134338.0
0.00023882500000000005,125757.99999999999
0.00024008400000000003,117960.0
0.000241343,110887.0
0.00024262000000000003,104363.99999999999
0.000243897,98420.0
0.000245165,93024.90000000001
0.000246415,88146.40000000001
0.000248081,82238.6
0.000249831,76681.1
0.000251581,71691.1
0.00025335500000000003,67136.6
0.00025513,63024.899999999994
0.00025693000000000005,59248.700000000004
0.00025873,55822.5
0.00026055500000000004,52659.3
0.00026238000000000005,49775.7
0.000264231,47101.3
0.00026608100000000004,44652.700000000004
0.000267958,42372.50000000001
0.000269835,40276.6
0.000271739,38317.700000000004
0.000273642,36525.8
0.000275573,34824.5
0.000278482,32507.0
0.000281418,30407.899999999998
0.000284396,28501.2
0.000287401,26773.1
0.000290406,25214.6
0.000293382,23818.7
0.000296486,22496.800000000003
0.00029962,21282.7
0.000303756,19848.1
0.000305793,19195.6
0.000310108,17941.8
0.000313389,17078.2
0.000318205,15932.900000000001
0.000322694,14987.4
0.000327247,14121.999999999998
0.000331864,13335.5
0.000336546,12612.8
0.000341294,11952.400000000001
0.00034610900000000004,11342.9
0.00035099200000000006,10783.6
0.00035543900000000004,10315.7
0.00036260000000000003,9640.19
0.000369893,9033.960000000001
0.000376694,8531.380000000001
0.000384685,8007.59
0.00038957000000000005,7717.38
0.00039753300000000004,7289.240000000001
0.000405643,6899.009999999999
0.0004142680000000001,6526.58
0.00042305500000000003,6190.91
0.00043205,5881.08
0.00044121499999999996,5599.0
0.000450596,5338.29
0.000460154,5099.56
0.00047322900000000003,4808.65
0.00048667600000000007,4546.08
0.000500505,4308.16
0.000513683,4107.24
0.000529197,3898.01
0.000544712,3712.72
0.000563329,3517.41
0.000579801,3365.71
0.0006000000000000001,3199.38
0.0006212170000000001,3048.02
0.0006466820000000001,2889.0
0.000675031,2735.9900000000002
0.0007047900000000001,2597.9700000000003
0.000737087,2467.79
0.000774149,2339.2599999999998
0.0008115550000000002,2227.11
0.000852361,2120.91
0.0008951750000000001,2023.4200000000003
0.000946772,1920.93
0.000997725,1832.27
0.00106215,1736.36
0.0011297500000000001,1648.2
0.00120477,1561.84
0.0012956,1469.05
0.00139489,1378.62
0.00151526,1280.14
0.0016515100000000001,1178.29
0.0017996099999999999,1075.96
0.0019672400000000003,967.736
0.002195,821.872
0.00233133,740.186
0.00242801,687.28
0.002507,647.793
0.002579,616.1089999999999
0.002639,594.092
0.0026869999999999997,580.324
0.0027229999999999997,572.876
0.002759,569.107
0.002771,568.4929999999999
0.002795,569.3240000000001
0.002819,572.7610000000001
0.0028490000000000004,581.6519999999999
0.002867,589.962
0.002885,601.3480000000001
0.002903,616.034
0.002915,628.264
0.002927,642.747
0.002939,659.871
0.002951,680.1179999999999
0.0029630000000000004,704.092
0.002978,740.369
0.002987,766.316
0.002996,796.132
0.003005,830.3620000000001
0.0030139999999999998,870.0570000000001
0.003023,915.99
0.003029,950.8509999999999
0.0030350000000000004,989.628
0.003041,1032.8999999999999
0.0030470000000000002,1081.37
0.003053,1135.88
0.003059,1197.43
0.003065,1267.01
0.0030695,1325.46
0.003074,1390.42
0.0030785,1462.6
0.0030830000000000002,1543.08
0.0030875,1633.18
0.003092,1734.5
0.0030965,1848.96
0.003101,1978.9099999999999
0.003104,2075.58
0.0031070000000000004,2181.46
0.00311,2297.75
0.003113,2425.86
0.0031160000000000003,2567.46
0.0031190000000000002,2724.49
0.0031219999999999998,2899.24
0.003125,3093.9
0.0031272500000000003,3255.32
0.0031295000000000003,3432.48
0.00313175,3626.5299999999997
0.003134,3839.67
0.00313625,4074.63
0.0031385000000000002,4334.31
0.0031407500000000003,4621.64
0.003143,4941.82
0.00314525,5300.72
0.0031475,5703.98
0.003149,6001.0599999999995
0.0031505,6323.76
0.0031520000000000003,6675.099999999999
0.0031535,7058.53
0.003155,7478.08
0.0031568,8035.85
0.0031586,8661.91
0.0031598000000000004,9122.83
0.003161,9623.23
0.0031622,10167.699999999999
0.0031634000000000002,10761.5
0.0031646,11410.800000000001
0.00316561,12007.000000000002
0.00316663,12652.5
0.00316764,13353.0
0.00316865,14114.599999999999
0.00316966,14944.599999999999
0.00317068,15850.900000000001
0.00317169,16843.1
0.0031727,17932.600000000002
0.00317388,19345.1
0.00317467,20383.300000000003
0.00317546,21508.699999999997
0.00317624,22730.800000000003
0.00317703,24060.100000000002
0.00317782,25508.8
0.00317861,27091.3
0.0031793,28610.1
0.0031802,30777.7
0.0031811,33200.0
0.0031817000000000004,34976.0
0.0031823000000000003,36896.8
0.0031829000000000002,38977.8
0.0031835,41236.8
0.00318407,43565.899999999994
0.00318461,45955.0
0.0031851500000000003,48540.9
0.00318569,51344.700000000004
0.0031862300000000004,54390.5
0.0031867700000000002,57705.6
0.00318731,61320.6
0.0031878500000000003,65270.6
0.00318833,69095.0
0.00318896,74617.1
0.00318959,80785.2
0.00319001,85302.2
0.00319043,90179.4
0.0031908500000000003,95451.70000000001
0.00319127,101157.00000000001
0.0031916600000000002,106878.99999999999
0.0031922,115545.00000000001
0.0031927400000000003,125169.0
0.00319328,135866.0
0.00319382,147756.0
0.00319418,156406.0
0.00319454,165679.0
0.00319508,180830.0
0.00319562,197562.0
0.00319616,215945.0
0.0031967,236001.0
0.00319724,257672.0
0.00319793,287445.0
0.00319914,342998.0
0.0032,382129.0
0.0032006,406942.0
0.00320105,423290.0
0.0032015,437055.0
0.0032019500000000003,447710.0
0.0032023999999999998,454825.00000000006
0.00320285,458101.0
0.003203,458310.99999999994
0.00320342,456541.99999999994
0.00320384,451369.00000000006
0.0032042700000000004,442631.99999999994
0.00320471,430794.00000000006
0.0032051500000000004,416295.00000000006
