E(MeV),xs(mb)
1.0e-11,9.3293e6
1.03223e-11,9.18252e6
1.06549e-11,9.03813e6
1.0998399999999998e-11,8.89594e6
1.13527e-11,8.75606e6
1.1718599999999999e-11,8.61831e6
1.2096199999999998e-11,8.48279e6
1.24861e-11,8.349349999999999e6
1.2888399999999999e-11,8.218059999999999e6
1.3303799999999998e-11,8.088789999999999e6
1.37325e-11,7.9616e6
1.41751e-11,7.83636e6
1.4631799999999997e-11,7.71315e6
1.51034e-11,7.59183e6
1.5590099999999998e-11,7.47246e6
1.6092599999999998e-11,7.35492e6
1.66111e-11,7.23928e6
1.71465e-11,7.12542e6
1.7699e-11,7.01339e6
1.8269399999999998e-11,6.90309e6
1.88581e-11,6.79456e6
1.94659e-11,6.6877e6
2.00931e-11,6.58256e6
2.0740699999999998e-11,6.47904e6
2.1408999999999998e-11,6.37718e6
2.2099099999999997e-11,6.2769e6
2.28111e-11,6.17822e6
2.3546399999999998e-11,6.08107e6
2.4305099999999997e-11,5.98547e6
2.50884e-11,5.89136e6
2.5896799999999997e-11,5.79875e6
2.67315e-11,5.70758e6
2.75928e-11,5.61786e6
2.8482199999999998e-11,5.52954e6
2.93999e-11,5.44262e6
3.0347499999999995e-11,5.35706e6
3.13253e-11,5.27286e6
3.2335e-11,5.18997e6
3.33769e-11,5.1084e6
3.44526e-11,5.0281e6
3.55627e-11,4.94908e6
3.67089e-11,4.87129e6
3.7891799999999997e-11,4.79474e6
3.9113e-11,4.71938e6
4.0373400000000003e-11,4.64522e6
4.1674599999999996e-11,4.57222e6
4.3017399999999996e-11,4.50038e6
4.440389999999999e-11,4.42965e6
4.58347e-11,4.36006e6
4.7311899999999994e-11,4.29155e6
4.883639999999999e-11,4.22413e6
5.0410399999999995e-11,4.1577599999999995e6
5.20348e-11,4.09244e6
5.37119e-11,4.02815e6
5.54426e-11,3.96488e6
5.7229499999999995e-11,3.90259e6
5.907359999999999e-11,3.8413e6
6.09775e-11,3.78096e6
6.29424e-11,3.72158e6
6.497099999999999e-11,3.66313e6
6.70645e-11,3.60561e6
6.9226e-11,3.54898e6
7.145659999999999e-11,3.49326e6
7.37596e-11,3.4384e6
7.61364e-11,3.38442e6
7.85902e-11,3.33129e6
8.11227e-11,3.27899e6
8.37372e-11,3.22752e6
8.643549999999999e-11,3.17686e6
8.922119999999998e-11,3.12699e6
9.209619999999999e-11,3.07792e6
9.506439999999999e-11,3.02961e6
9.81277e-11,2.98207e6
1.01291e-10,2.93527e6
1.04554e-10,2.88922e6
1.07924e-10,2.84388e6
1.11402e-10,2.79928e6
1.1499200000000001e-10,2.75536e6
1.1869700000000001e-10,2.71215e6
1.22523e-10,2.6696e6
1.26471e-10,2.62774e6
1.30547e-10,2.58653e6
1.34754e-10,2.54598e6
1.3909700000000002e-10,2.50605e6
1.43579e-10,2.46677e6
1.48207e-10,2.42809e6
1.52982e-10,2.39004e6
1.57913e-10,2.35257e6
1.6300100000000001e-10,2.31571e6
1.68254e-10,2.27942e6
1.73676e-10,2.24371e6
1.79274e-10,2.20855e6
1.8505000000000002e-10,2.17396e6
1.91014e-10,2.1399e6
1.97169e-10,2.10639e6
2.03524e-10,2.0734e6
2.1008200000000003e-10,2.04093e6
2.16853e-10,2.0089700000000002e6
2.2384e-10,1.97753e6
2.31055e-10,1.94657e6
2.385e-10,1.9161e6
2.46187e-10,1.88611e6
2.5412e-10,1.8566e6
2.6231e-10,1.82755e6
2.70762e-10,1.79896e6
2.7948900000000003e-10,1.77082e6
2.88494e-10,1.74312e6
2.9779300000000004e-10,1.71586e6
3.07388e-10,1.68903e6
3.1729500000000004e-10,1.66262e6
3.27519e-10,1.63663e6
3.38075e-10,1.61105e6
3.4896900000000003e-10,1.58587e6
3.6021600000000004e-10,1.56109e6
3.7182300000000004e-10,1.5367e6
3.83807e-10,1.51269e6
3.96174e-10,1.48906e6
4.08943e-10,1.4658e6
4.2212e-10,1.44292e6
4.3572499999999996e-10,1.42038e6
4.4976500000000005e-10,1.39821e6
4.6426100000000007e-10,1.37638e6
4.79221e-10,1.3549e6
4.94666e-10,1.33376e6
5.10605e-10,1.31295e6
5.270620000000001e-10,1.29247e6
5.440450000000001e-10,1.27231e6
5.6158e-10,1.25247e6
5.796750000000001e-10,1.23294e6
5.98358e-10,1.21371e6
6.176389999999999e-10,1.1948e6
6.37545e-10,1.17617e6
6.58089e-10,1.15785e6
6.79298e-10,1.1398e6
7.01188e-10,1.12205e6
7.237860000000001e-10,1.10457e6
7.47109e-10,1.08737e6
7.71188e-10,1.07044e6
7.960380000000001e-10,1.05377e6
8.21693e-10,1.0373699999999999e6
8.48171e-10,1.0212300000000001e6
8.75507e-10,1.00533e6
9.037190000000002e-10,989694.0000000001
9.32845e-10,974297.0
9.62904e-10,959146.0
9.93937e-10,944230.0
1.0259700000000001e-9,929551.0
1.05903e-9,915100.0
1.09316e-9,900878.9999999999
1.12839e-9,886877.9999999999
1.16475e-9,873101.0
1.2022900000000002e-9,859537.0000000001
1.2410300000000002e-9,846189.0
1.28103e-9,833048.0
1.3223100000000002e-9,820115.0
1.36492e-9,807384.0
1.4089000000000002e-9,794855.0
1.4543100000000001e-9,782520.0
1.5011699999999999e-9,770381.0
1.5495600000000002e-9,758430.0
1.5994900000000002e-9,746669.0
1.6510400000000001e-9,735090.0
1.7042400000000001e-9,723695.0
1.75917e-9,712477.0
1.81585e-9,701437.0
1.87438e-9,690568.0
1.9347700000000003e-9,679871.0
1.99713e-9,669340.0
2.06148e-9,658976.0
2.1279200000000002e-9,648772.0
2.19649e-9,638730.0
2.26728e-9,628844.0
2.3403400000000002e-9,619114.0
2.4157700000000002e-9,609535.0
2.49362e-9,600108.0
2.5739800000000002e-9,590827.0
2.65692e-9,581692.0
2.7425500000000002e-9,572699.0
2.8309300000000003e-9,563848.0
2.92217e-9,555134.0
3.01633e-9,546557.0
3.11354e-9,538114.0
3.21387e-9,529803.0
3.3174500000000004e-9,521621.0
3.42435e-9,513568.0
3.53471e-9,505640.0
3.6486100000000003e-9,497836.00000000006
3.7662000000000005e-9,490153.0
3.88757e-9,482591.00000000006
4.01286e-9,475146.0
4.14217e-9,467818.0
4.2756600000000005e-9,460602.99999999994
4.41344e-9,453501.0
4.55568e-9,446509.99999999994
4.7024800000000005e-9,439628.0
4.85404e-9,432852.0
5.01045e-9,426183.0
5.17193e-9,419617.00000000006
5.338590000000001e-9,413152.99999999994
5.510650000000001e-9,406790.0
5.688220000000001e-9,400526.0
5.871540000000001e-9,394359.0
6.06075e-9,388288.0
6.256080000000001e-9,382311.0
6.4576700000000005e-9,376427.0
6.665790000000001e-9,370634.0
6.8805900000000005e-9,364931.0
7.1023400000000005e-9,359315.0
7.33121e-9,353787.0
7.56748e-9,348344.0
7.81133e-9,342986.0
8.06308e-9,337709.0
8.32291e-9,332515.0
8.59114e-9,327401.0
8.86798e-9,322366.0
9.15378e-9,317408.0
9.44875e-9,312527.0
9.753270000000001e-9,307721.0
1.0067600000000001e-8,302990.0
1.0392e-8,298331.0
1.07269e-8,293745.0
1.10726e-8,289228.0
1.1429400000000001e-8,284782.0
1.17978e-8,280404.0
1.21779e-8,276093.0
1.25704e-8,271848.0
1.29755e-8,267668.0
1.33937e-8,263552.0
1.3825300000000001e-8,259500.00000000003
1.42708e-8,255507.99999999997
1.4730700000000002e-8,251578.0
1.52054e-8,247707.0
1.56954e-8,243895.99999999997
1.62012e-8,240142.0
1.67233e-8,236446.99999999997
1.72623e-8,232807.0
1.78185e-8,229223.0
1.83928e-8,225693.0
1.89855e-8,222217.00000000003
1.9597400000000002e-8,218794.00000000003
2.02289e-8,215423.0
2.0880800000000003e-8,212103.99999999997
2.15537e-8,208835.00000000003
2.2248299999999998e-8,205615.0
2.2965200000000002e-8,202445.0
2.37054e-8,199323.0
2.4469300000000002e-8,196248.0
2.52522e-8,193241.0
2.5299999999999998e-8,193062.0
2.61154e-8,190081.0
2.69569e-8,187146.0
2.7825700000000004e-8,184255.0
2.8722400000000002e-8,181408.0
2.9648e-8,178604.0
3.06034e-8,175842.0
3.1589700000000004e-8,173122.0
3.26077e-8,170444.0
3.36586e-8,167805.0
3.47432e-8,165208.0
3.58629e-8,162649.0
3.70185e-8,160130.0
3.8211599999999997e-8,157649.0
3.94429e-8,155207.0
4.07141e-8,152801.0
4.20261e-8,150432.0
4.33805e-8,148099.0
4.4778399999999994e-8,145802.0
4.622150000000001e-8,143539.0
4.7710999999999996e-8,141311.0
4.92486e-8,139118.0
5.0835600000000004e-8,136958.0
5.2474e-8,134832.0
5.41649e-8,132740.0
5.59105e-8,130678.99999999999
5.77122e-8,128652.00000000001
5.95722e-8,126657.0
6.149180000000001e-8,124694.0
6.347360000000001e-8,122762.0
6.5519e-8,120861.0
6.76305e-8,118992.00000000001
6.980990000000001e-8,117153.0
7.20597e-8,115345.00000000001
7.43818e-8,113567.0
7.6779e-8,111820.00000000001
7.92531e-8,110103.0
8.18073e-8,108417.00000000001
8.44435e-8,106760.00000000001
8.716490000000001e-8,105134.0
8.99737e-8,103536.99999999999
9.28735e-8,101969.0
9.58662e-8,100432.00000000001
9.89558e-8,98924.2
1.0214499999999999e-7,97447.5
1.0543699999999999e-7,96001.2
1.0883400000000001e-7,94586.2
1.12104e-7,93293.8
1.1547199999999999e-7,92029.0
1.1894199999999998e-7,90792.5
1.22516e-7,89584.49999999999
1.26197e-7,88405.79999999999
1.2998799999999999e-7,87257.0
1.33894e-7,86138.8
1.37917e-7,85052.2
1.42061e-7,83998.1
1.4632899999999999e-7,82977.79999999999
1.50726e-7,81992.4
1.54927e-7,81109.9
1.59244e-7,80260.5
1.63683e-7,79445.2
1.6824399999999998e-7,78666.09999999999
1.72934e-7,77925.0
1.77753e-7,77224.3
1.8232099999999998e-7,76615.5
1.87006e-7,76045.4
1.91812e-7,75516.8
1.9674199999999998e-7,75032.7
2.01372e-7,74630.90000000001
2.0611e-7,74272.3
2.1096099999999998e-7,73960.1
2.15925e-7,73697.8
2.20539e-7,73506.5
2.2525199999999998e-7,73364.2
2.3006600000000002e-7,73275.3
2.3480699999999997e-7,73244.4
2.3931900000000003e-7,73268.70000000001
2.4391699999999995e-7,73348.7
2.4807800000000003e-7,73470.5
2.5230999999999996e-7,73644.5
2.56615e-7,73875.3
2.60442e-7,74128.2
2.64325e-7,74432.90000000001
2.68267e-7,74794.0
2.7226699999999996e-7,75216.3
2.75743e-7,75631.2
2.79264e-7,76099.1
2.8282899999999997e-7,76624.5
2.8643999999999996e-7,77212.2
2.89486e-7,77753.6
2.9256199999999997e-7,78345.4
2.9567199999999995e-7,78992.1
2.9881399999999997e-7,79697.3
3.01991e-7,80466.4
3.052e-7,81304.0
3.07792e-7,82027.90000000001
3.10406e-7,82802.79999999999
3.13043e-7,83632.6
3.15702e-7,84521.0
3.18383e-7,85472.5
3.2108799999999997e-7,86491.90000000001
3.23815e-7,87584.3
3.2587700000000003e-7,88455.3
3.2794999999999997e-7,89372.7
3.30037e-7,90340.6
3.32137e-7,91360.7
3.34251e-7,92437.90000000001
3.36378e-7,93574.2
3.38519e-7,94775.1
3.40672e-7,96043.1
3.42841e-7,97384.79999999999
3.4502199999999995e-7,98803.2
3.47219e-7,100306.0
3.49427e-7,101897.0
3.5165199999999995e-7,103584.00000000001
3.5314199999999995e-7,104766.0
3.54639e-7,105995.0
3.5614199999999996e-7,107275.00000000001
3.5765099999999995e-7,108609.0
3.59167e-7,109998.0
3.6068899999999996e-7,111446.0
3.62217e-7,112955.99999999999
3.63753e-7,114531.99999999999
3.65294e-7,116177.0
3.6684199999999997e-7,117895.0
3.6839699999999996e-7,119690.00000000001
3.69958e-7,121567.0
3.71526e-7,123530.99999999999
3.73101e-7,125586.0
3.7468199999999997e-7,127738.0
3.7627e-7,129994.00000000001
3.7786400000000003e-7,132360.0
3.7906399999999996e-7,134210.0
3.80268e-7,136128.0
3.81477e-7,138121.0
3.82689e-7,140189.0
3.8390399999999994e-7,142336.0
3.85123e-7,144566.0
3.86347e-7,146886.0
3.87575e-7,149298.0
3.8880599999999994e-7,151807.0
3.90041e-7,154418.0
3.9127999999999994e-7,157140.0
3.92524e-7,159975.0
3.9376999999999996e-7,162930.0
3.9502100000000003e-7,166012.0
3.9627599999999994e-7,169233.0
3.97535e-7,172595.0
3.9879799999999994e-7,176107.0
4.0006399999999995e-7,179779.0
4.00912e-7,182324.0
4.0175999999999997e-7,184944.0
4.02611e-7,187650.0
4.03462e-7,190437.0
4.04317e-7,193319.0
4.05172e-7,196287.0
4.06031e-7,199359.0
4.0688899999999993e-7,202525.00000000003
4.07752e-7,205804.0
4.08614e-7,209186.0
4.0948e-7,212690.0
4.1034499999999993e-7,216308.0
4.1121499999999997e-7,220059.0
4.12084e-7,223934.0
4.1295799999999996e-7,227955.0
4.1383099999999997e-7,232112.0
4.14708e-7,236430.0
4.15585e-7,240897.0
4.16465e-7,245541.0
4.17346e-7,250349.00000000003
4.1822999999999995e-7,255351.99999999997
4.1911500000000003e-7,260537.00000000003
4.20003e-7,265935.0
4.2089100000000003e-7,271536.0
4.21783e-7,277373.0
4.22452e-7,281897.0
4.2312200000000005e-7,286565.0
4.2379399999999996e-7,291376.0
4.2446599999999993e-7,296329.0
4.25141e-7,301451.0
4.2581499999999995e-7,306727.0
4.2649100000000003e-7,312171.0
4.27168e-7,317798.0
4.2784500000000003e-7,323599.0
4.2852499999999995e-7,329598.0
4.2920499999999993e-7,335796.0
4.2988499999999996e-7,342191.0
4.30569e-7,348820.0
4.31252e-7,355665.0
4.3193599999999993e-7,362745.0
4.32622e-7,370081.0
4.3330799999999995e-7,377662.0
4.3399599999999994e-7,385521.0
4.3468499999999995e-7,393660.0
4.35374e-7,402079.0
4.36066e-7,410828.0
4.36758e-7,419883.99999999994
4.3745099999999996e-7,429273.0
4.3814599999999993e-7,439024.00000000006
4.38841e-7,449127.0
4.3953699999999995e-7,459624.0
4.40235e-7,470521.0
4.4093299999999994e-7,481819.00000000006
4.4163399999999997e-7,493585.00000000006
4.42335e-7,505789.00000000006
4.4280199999999997e-7,514178.0
4.43271e-7,522813.0
4.4374000000000003e-7,531665.0
4.44209e-7,540738.0
4.4467800000000003e-7,550040.0
4.4514899999999996e-7,559618.0
4.456209999999999e-7,569437.0
4.4609199999999994e-7,579506.0
4.4656299999999997e-7,589830.0
4.47036e-7,600462.0
4.4750899999999993e-7,611365.0
4.4798199999999997e-7,622545.0
4.4845499999999995e-7,634010.0
4.4893099999999996e-7,645816.0
4.49406e-7,657924.0
4.49881e-7,670338.0
4.50356e-7,683068.0
4.50833e-7,696174.0
4.5130999999999993e-7,709612.0
4.51787e-7,723387.0
4.5226499999999993e-7,737506.0
4.52744e-7,752039.0
4.53223e-7,766931.0
4.53702e-7,782190.0
4.54181e-7,797820.0
4.5466199999999997e-7,813897.0
4.5514400000000004e-7,830361.0000000001
4.5562500000000003e-7,847214.9999999999
4.56106e-7,864465.0
4.5658899999999996e-7,882189.9999999999
4.57073e-7,900320.9999999999
4.57556e-7,918862.0
4.58039e-7,937814.0
4.5852399999999996e-7,957260.9999999999
4.590099999999999e-7,977126.0
4.5949499999999997e-7,997408.0000000001
4.5997999999999997e-7,1.0181e6
4.60468e-7,1.03931e6
4.6119899999999995e-7,1.07188e6
4.6192999999999995e-7,1.10538e6
4.62664e-7,1.13991e6
4.63398e-7,1.17532e6
4.64133e-7,1.21162e6
4.6486999999999995e-7,1.24882e6
4.6560699999999997e-7,1.28676e6
4.66347e-7,1.32551e6
4.6733399999999994e-7,1.37819e6
4.68323e-7,1.4319e6
4.6981e-7,1.51387e6
4.7230100000000004e-7,1.65217e6
4.73301e-7,1.70709e6
4.74303e-7,1.76126e6
4.75056e-7,1.80116e6
4.75809e-7,1.84018e6
4.7656499999999995e-7,1.8783e6
4.773209999999999e-7,1.91518e6
4.78078e-7,1.95068e6
4.78838e-7,1.98467e6
4.793440000000001e-7,2.0063399999999998e6
4.798499999999999e-7,2.02717e6
4.803589999999999e-7,2.04718e6
4.80867e-7,2.06624e6
4.813749999999999e-7,2.0842900000000002e6
4.81884e-7,2.1013e6
4.82394e-7,2.11728e6
4.829049999999999e-7,2.13212e6
4.83415e-7,2.14578e6
4.83926e-7,2.15822e6
4.84439e-7,2.16945e6
4.84951e-7,2.1794e6
4.85464e-7,2.18802e6
4.85977e-7,2.1953e6
4.864919999999999e-7,2.20124e6
4.87007e-7,2.20578e6
4.87522e-7,2.20892e6
4.88037e-7,2.21065e6
4.88417e-7,2.21102e6
4.88919e-7,2.21032e6
4.89424e-7,2.20826e6
4.898069999999999e-7,2.20579e6
4.90326e-7,2.2012e6
4.90845e-7,2.19521e6
4.913639999999999e-7,2.18782e6
4.91883e-7,2.17906e6
4.924039999999999e-7,2.1689e6
4.929249999999999e-7,2.15742e6
4.934459999999999e-7,2.14463e6
4.939669999999999e-7,2.13059e6
4.94491e-7,2.11525e6
4.95014e-7,2.09872e6
4.95537e-7,2.0810499999999998e6
4.96061e-7,2.06228e6
4.96586e-7,2.04238e6
4.97112e-7,2.0214699999999998e6
4.97638e-7,1.99961e6
4.98163e-7,1.97685e6
4.98691e-7,1.95315e6
4.99483e-7,1.91615e6
5.00274e-7,1.87758e6
5.01069e-7,1.83747e6
5.01864e-7,1.79619e6
5.02394e-7,1.76811e6
5.03459e-7,1.71063e6
5.045239999999999e-7,1.6521e6
5.077349999999999e-7,1.47338e6
5.08809e-7,1.4142e6
5.098869999999999e-7,1.35561e6
5.106959999999999e-7,1.31238e6
5.11507e-7,1.26976e6
5.123189999999999e-7,1.22791e6
5.13131e-7,1.18696e6
5.13946e-7,1.1468e6
5.144899999999999e-7,1.12061e6
5.150339999999999e-7,1.09488e6
5.15578e-7,1.06959e6
5.16124e-7,1.04474e6
5.1667e-7,1.0204e6
5.172159999999999e-7,996568.0000000001
5.17764e-7,973206.0000000001
5.18312e-7,950318.0
5.1886e-7,927956.0
5.19408e-7,906119.0
5.19958e-7,884763.0
5.205079999999999e-7,863885.9999999999
5.21059e-7,843533.0
5.2161e-7,823698.0000000001
5.221609999999999e-7,804335.0
5.227140000000001e-7,785441.0
5.23267e-7,767051.0
5.2382e-7,749157.0
5.243739999999999e-7,731714.0
5.249299999999999e-7,714717.0
5.25485e-7,698193.0
5.2604e-7,682132.0
5.26597e-7,666493.0
5.27154e-7,651268.0
5.27712e-7,636479.0
5.28269e-7,622116.0
5.288280000000001e-7,608139.0
5.29388e-7,594540.0
5.29948e-7,581338.0
5.30508e-7,568522.0
5.31069e-7,556056.0
5.31632e-7,543930.0
5.321939999999999e-7,532160.0
5.32757e-7,520737.0
5.3332e-7,509626.99999999994
5.33885e-7,498820.0
5.3445e-7,488332.00000000006
5.350139999999999e-7,478152.00000000006
5.3558e-7,468248.99999999994
5.36147e-7,458617.0
5.36715e-7,449266.0
5.37282e-7,440188.0
5.3785e-7,431355.0
5.384199999999999e-7,422761.00000000006
5.38989e-7,414415.0
5.39559e-7,406310.00000000006
5.4013e-7,398421.0
5.40702e-7,390742.0
5.41273e-7,383281.0
5.41845e-7,376032.0
5.42419e-7,368974.0
5.429929999999999e-7,362099.0
5.43567e-7,355417.0
5.44142e-7,348922.0
5.44717e-7,342593.0
5.452939999999999e-7,336426.0
5.45871e-7,330428.0
5.46448e-7,324594.0
5.47026e-7,318907.0
5.47605e-7,313361.0
5.48184e-7,307965.0
5.48764e-7,302713.0
5.493439999999999e-7,297590.0
5.499259999999999e-7,292592.0
5.50508e-7,287725.0
5.510889999999999e-7,282986.0
5.51672e-7,278360.0
5.52256e-7,273843.0
5.52841e-7,269443.0
5.53425e-7,265156.0
5.5401e-7,260968.0
5.54597e-7,256877.00000000003
5.55477e-7,250932.99999999997
5.56358e-7,245200.0
5.57242e-7,239663.0
5.58126e-7,234328.0
5.59012e-7,229170.0
5.598989999999999e-7,224189.99999999997
5.60787e-7,219386.0
5.61678e-7,214732.0
5.625689999999999e-7,210239.99999999997
5.63462e-7,205897.0
5.64357e-7,201691.00000000003
5.65252e-7,197627.0
5.661489999999999e-7,193689.0
5.67048e-7,189877.0
5.67947e-7,186191.0
5.688489999999999e-7,182611.0
5.69752e-7,179147.0
5.706559999999999e-7,175790.0
5.71562e-7,172532.0
5.724689999999999e-7,169376.0
5.73378e-7,166311.0
5.74288e-7,163338.0
5.75198e-7,160456.0
5.761129999999999e-7,157651.0
5.770269999999999e-7,154931.0
5.77942e-7,152290.0
5.788599999999999e-7,149720.0
5.79778e-7,147227.0
5.80699e-7,144800.0
5.816209999999999e-7,142441.0
5.82543e-7,140151.0
5.83468e-7,137917.0
5.84394e-7,135747.0
5.85631e-7,132943.0
5.86871e-7,130237.0
5.88113e-7,127626.0
5.89358e-7,125105.0
5.90606e-7,122669.99999999999
5.91856e-7,120317.0
5.93108e-7,118043.00000000001
5.94364e-7,115843.99999999999
5.956219999999999e-7,113717.0
5.968829999999999e-7,111659.0
5.98146e-7,109668.00000000001
5.994119999999999e-7,107739.0
6.006809999999999e-7,105872.00000000001
6.019529999999999e-7,104062.00000000001
6.032269999999999e-7,102309.0
6.04504e-7,100610.0
6.057829999999999e-7,98961.7
6.07066e-7,97363.2
6.08351e-7,95812.5
6.096379999999999e-7,94307.5
6.109289999999999e-7,92846.6
6.12222e-7,91428.0
6.13518e-7,90050.3
6.14817e-7,88711.8
6.16118e-7,87411.20000000001
6.17422e-7,86146.99999999999
6.18729e-7,84917.9
6.200389999999999e-7,83722.7
6.21351e-7,82560.09999999999
6.22667e-7,81428.99999999999
6.24645e-7,79788.8
6.266289999999999e-7,78214.0
6.28619e-7,76701.3
6.30617e-7,75245.4
6.326209999999999e-7,73845.59999999999
6.3463e-7,72499.1
6.36645e-7,71203.3
6.386689999999999e-7,69953.90000000001
6.40698e-7,68750.5
6.42733e-7,67591.0
6.44774e-7,66473.1
6.46823e-7,65393.5
6.48878e-7,64352.0
6.509389999999999e-7,63346.799999999996
6.53006e-7,62376.2
6.550819999999999e-7,61437.5
6.57163e-7,60530.600000000006
6.5925e-7,59654.0
6.61344e-7,58806.5
6.63446e-7,57985.6
6.65554e-7,57191.5
6.676679999999999e-7,56422.9
6.697879999999999e-7,55678.9
6.71917e-7,54957.399999999994
6.74051e-7,54258.6
6.769079999999999e-7,53360.3
6.797769999999999e-7,52498.1
6.826579999999999e-7,51670.299999999996
6.85551e-7,50875.2
6.884559999999999e-7,50111.0
6.91374e-7,49376.3
6.94304e-7,48669.6
6.97246e-7,47989.6
7.00201e-7,47335.0
7.03169e-7,46704.600000000006
7.06149e-7,46097.4
7.09141e-7,45512.2
7.121470000000001e-7,44948.0
7.151649999999999e-7,44404.0
7.18196e-7,43879.299999999996
7.21239e-7,43373.0
7.24296e-7,42884.3
7.273659999999999e-7,42412.5
7.30448e-7,41956.9
7.33544e-7,41516.9
7.3821e-7,40884.799999999996
7.4291e-7,40284.00000000001
7.47636e-7,39713.3
7.52395e-7,39170.3
7.57182e-7,38654.2
7.62002e-7,38162.799999999996
7.66849e-7,37695.6
7.71731e-7,37250.700000000004
7.766399999999999e-7,36827.5
7.815839999999999e-7,36424.6
7.86556e-7,36041.6
7.915639999999999e-7,35677.0
7.965989999999999e-7,35330.5
8.0167e-7,35000.8
8.0677e-7,34687.8
8.119059999999999e-7,34390.4
8.170709999999999e-7,34108.200000000004
8.22272e-7,33840.6
8.275029999999999e-7,33587.3
8.345319999999998e-7,33270.7
8.416199999999999e-7,32977.8
8.48769e-7,32707.5
8.559789999999999e-7,32459.3
8.63249e-7,32232.699999999997
8.705819999999999e-7,32027.100000000002
8.779759999999999e-7,31842.199999999997
8.85434e-7,31677.8
8.92955e-7,31533.8
9.00539e-7,31410.100000000002
9.081879999999999e-7,31306.699999999997
9.15903e-7,31224.0
9.23682e-7,31162.3
9.315279999999999e-7,31121.9
