E(MeV),xs(mb)
1.0e-11,4.1310700000000005e6
1.03223e-11,4.0661199999999995e6
1.06549e-11,4.00223e6
1.0998399999999998e-11,3.93931e6
1.13527e-11,3.87741e6
1.1718599999999999e-11,3.81646e6
1.2096199999999998e-11,3.75649e6
1.24861e-11,3.69744e6
1.2888399999999999e-11,3.63935e6
1.3303799999999998e-11,3.58215e6
1.37325e-11,3.52587e6
1.41751e-11,3.47046e6
1.4631799999999997e-11,3.41594e6
1.51034e-11,3.36226e6
1.5590099999999998e-11,3.30945e6
1.6092599999999998e-11,3.25745e6
1.66111e-11,3.20628e6
1.71465e-11,3.15591e6
1.7699e-11,3.10635e6
1.8269399999999998e-11,3.05755e6
1.88581e-11,3.00953e6
1.94659e-11,2.96226e6
2.00931e-11,2.91575e6
2.0740699999999998e-11,2.86995e6
2.1408999999999998e-11,2.82489e6
2.2099099999999997e-11,2.78053e6
2.28111e-11,2.73688e6
2.3546399999999998e-11,2.69391e6
2.4305099999999997e-11,2.65163e6
2.50884e-11,2.61e6
2.5896799999999997e-11,2.56904e6
2.67315e-11,2.52871e6
2.75928e-11,2.48903e6
2.8482199999999998e-11,2.44996e6
2.93999e-11,2.41153e6
3.0347499999999995e-11,2.37368e6
3.13253e-11,2.33645e6
3.2335e-11,2.29979e6
3.33769e-11,2.26372e6
3.44526e-11,2.22821e6
3.55627e-11,2.19327e6
3.67089e-11,2.15888e6
3.7891799999999997e-11,2.12503e6
3.9113e-11,2.09171e6
4.0373400000000003e-11,2.05892e6
4.1674599999999996e-11,2.02665e6
4.3017399999999996e-11,1.99489e6
4.440389999999999e-11,1.96362e6
4.58347e-11,1.93286e6
4.7311899999999994e-11,1.90257e6
4.883639999999999e-11,1.87277e6
5.0410399999999995e-11,1.84344e6
5.20348e-11,1.81457e6
5.37119e-11,1.78615e6
5.54426e-11,1.75819e6
5.7229499999999995e-11,1.73067e6
5.907359999999999e-11,1.70358e6
6.09775e-11,1.67692e6
6.29424e-11,1.65068e6
6.497099999999999e-11,1.62486e6
6.70645e-11,1.59944e6
6.9226e-11,1.57443e6
7.145659999999999e-11,1.54981e6
7.37596e-11,1.52558e6
7.61364e-11,1.50174e6
7.85902e-11,1.47827e6
8.11227e-11,1.45517e6
8.37372e-11,1.43244e6
8.643549999999999e-11,1.41007e6
8.922119999999998e-11,1.38805e6
9.209619999999999e-11,1.36638e6
9.506439999999999e-11,1.34505e6
9.81277e-11,1.32407e6
1.01291e-10,1.30341e6
1.04554e-10,1.28308e6
1.07924e-10,1.26307e6
1.11402e-10,1.24338e6
1.1499200000000001e-10,1.224e6
1.1869700000000001e-10,1.20493e6
1.22523e-10,1.18616e6
1.26471e-10,1.16769e6
1.30547e-10,1.14951e6
1.34754e-10,1.13162e6
1.3909700000000002e-10,1.11401e6
1.43579e-10,1.09669e6
1.48207e-10,1.07963e6
1.52982e-10,1.06285e6
1.57913e-10,1.04633e6
1.6300100000000001e-10,1.0300800000000001e6
1.68254e-10,1.0140800000000001e6
1.73676e-10,998342.0000000001
1.79274e-10,982846.0
1.8505000000000002e-10,967601.0
1.91014e-10,952594.0
1.97169e-10,937829.0
2.03524e-10,923293.9999999999
2.1008200000000003e-10,908994.0
2.16853e-10,894917.0
2.2384e-10,881067.0
2.31055e-10,867434.0000000001
2.385e-10,854020.0
2.46187e-10,840816.0
2.5412e-10,827825.0
2.6231e-10,815037.0
2.70762e-10,802455.0
2.7948900000000003e-10,790070.0
2.88494e-10,777885.0
2.9779300000000004e-10,765890.0
3.07388e-10,754089.0
3.1729500000000004e-10,742472.0
3.27519e-10,731043.0
3.38075e-10,719792.0
3.4896900000000003e-10,708723.0
3.6021600000000004e-10,697826.0
3.7182300000000004e-10,687106.0
3.83807e-10,676553.0
3.96174e-10,666170.0
4.08943e-10,655950.0
4.2212e-10,645894.0
4.3572499999999996e-10,635996.0
4.4976500000000005e-10,626256.0
4.6426100000000007e-10,616670.0
4.79221e-10,607237.0
4.94666e-10,597953.0
5.10605e-10,588817.0
5.270620000000001e-10,579825.0
5.440450000000001e-10,570977.0
5.6158e-10,562268.0
5.796750000000001e-10,553699.0
5.98358e-10,545264.0
6.176389999999999e-10,536964.0
6.37545e-10,528795.0
6.58089e-10,520756.0
6.79298e-10,512844.00000000006
7.01188e-10,505058.0
7.237860000000001e-10,497395.00000000006
7.47109e-10,489853.99999999994
7.71188e-10,482432.0
7.960380000000001e-10,475128.00000000006
8.21693e-10,467939.0
8.48171e-10,460865.0
8.75507e-10,453902.0
9.037190000000002e-10,447050.00000000006
9.32845e-10,440306.0
9.62904e-10,433669.0
9.93937e-10,427137.0
1.0259700000000001e-9,420709.0
1.05903e-9,414382.0
1.09316e-9,408155.99999999994
1.12839e-9,402027.0
1.16475e-9,395997.0
1.2022900000000002e-9,390061.0
1.2410300000000002e-9,384219.0
1.28103e-9,378470.0
1.3223100000000002e-9,372812.0
1.36492e-9,367242.0
1.4089000000000002e-9,361762.0
1.4543100000000001e-9,356367.0
1.5011699999999999e-9,351059.0
1.5495600000000002e-9,345834.0
1.5994900000000002e-9,340692.0
1.6510400000000001e-9,335630.0
1.7042400000000001e-9,330650.0
1.75917e-9,325747.0
1.81585e-9,320922.0
1.87438e-9,316173.0
1.9347700000000003e-9,311500.0
1.99713e-9,306900.0
2.06148e-9,302373.0
2.1279200000000002e-9,297917.0
2.19649e-9,293532.0
2.26728e-9,289215.0
2.3403400000000002e-9,284968.0
2.4157700000000002e-9,280787.0
2.4989e-9,276400.0
2.58489e-9,272087.0
2.6738400000000004e-9,267846.0
2.76585e-9,263677.0
2.86102e-9,259578.0
2.9594800000000002e-9,255548.00000000003
3.0613100000000005e-9,251585.0
3.16666e-9,247689.0
3.27563e-9,243859.0
3.3883400000000003e-9,240092.99999999997
3.50494e-9,236391.00000000003
3.62555e-9,232750.0
3.75031e-9,229171.0
3.87936e-9,225652.0
4.01286e-9,222192.0
4.15094e-9,218790.0
4.2937800000000004e-9,215445.00000000003
4.44154e-9,212156.0
4.59438e-9,208923.0
4.75247e-9,205744.00000000003
4.916010000000001e-9,202618.0
5.085180000000001e-9,199545.0
5.26016e-9,196523.0
5.44117e-9,193552.0
5.62841e-9,190631.0
5.8220900000000005e-9,187759.0
6.022430000000001e-9,184936.0
6.22967e-9,182159.0
6.444040000000001e-9,179429.0
6.665790000000001e-9,176745.0
6.89517e-9,174105.0
7.13244e-9,171510.0
7.3778800000000006e-9,168959.0
7.63176e-9,166450.0
7.894370000000002e-9,163982.0
8.16603e-9,161557.0
8.44703e-9,159172.0
8.73771e-9,156826.0
9.03838e-9,154520.0
9.3494e-9,152253.0
9.671130000000001e-9,150024.0
1.00039e-8,147831.0
1.03482e-8,145676.0
1.07043e-8,143557.0
1.10726e-8,141473.0
1.14536e-8,139424.0
1.18478e-8,137409.0
1.22555e-8,135428.0
1.26772e-8,133480.0
1.31134e-8,131564.0
1.3564700000000001e-8,129681.0
1.40314e-8,127828.00000000001
1.45143e-8,126007.0
1.50137e-8,124216.0
1.55304e-8,122454.0
1.60648e-8,120722.0
1.66176e-8,119019.00000000001
1.71894e-8,117344.0
1.77809e-8,115696.0
1.83928e-8,114077.0
1.90257e-8,112484.0
1.9722e-8,110820.00000000001
2.04439e-8,109186.0
2.1192099999999998e-8,107581.0
2.19678e-8,106004.00000000001
2.27718e-8,104455.00000000001
2.3605299999999998e-8,102933.00000000001
2.4469300000000002e-8,101438.0
2.52522e-8,100150.0
2.5299999999999998e-8,100072.99999999999
2.6226099999999998e-8,98628.40000000001
2.71859e-8,97209.0
2.8181e-8,95814.40000000001
2.9212400000000002e-8,94444.5
3.0281600000000004e-8,93098.50000000001
3.13899e-8,91776.2
3.2538900000000006e-8,90476.8
3.37297e-8,89200.3
3.4964300000000004e-8,87945.6
3.6244000000000003e-8,86713.0
3.7570600000000004e-8,85501.5
3.89456e-8,84311.2
4.03712e-8,83141.4
4.1848700000000003e-8,81992.1
4.33805e-8,80862.59999999999
4.4968199999999994e-8,79752.8
4.66141e-8,78662.0
4.8320100000000004e-8,77590.2
5.008880000000001e-8,76536.8
5.1922e-8,75501.7
5.38225e-8,74484.3
5.57923e-8,73484.6
5.78345e-8,72502.0
5.995110000000001e-8,71536.5
6.22769e-8,70532.2
6.4693e-8,69545.9
6.72027e-8,68577.1
6.980990000000001e-8,67625.59999999999
7.251810000000001e-8,66691.0
7.53315e-8,65773.09999999999
7.825400000000001e-8,64871.600000000006
8.128980000000001e-8,63986.200000000004
8.44435e-8,63116.399999999994
8.771940000000001e-8,62262.00000000001
9.11225e-8,61422.8
9.465759999999999e-8,60598.200000000004
9.83299e-8,59788.2
1.0214499999999999e-7,58992.3
1.0610699999999999e-7,58210.2
1.1022400000000001e-7,57441.700000000004
1.145e-7,56686.50000000001
1.1894199999999998e-7,55944.5
1.23556e-7,55215.3
1.2835e-7,54498.7
1.33611e-7,53755.2
1.3908799999999998e-7,53024.8
1.4479e-7,52307.1
1.50726e-7,51602.1
1.56905e-7,50909.4
1.63337e-7,50228.799999999996
1.7003299999999997e-7,49559.9
1.77003e-7,48902.6
1.8425899999999998e-7,48256.4
1.91812e-7,47621.200000000004
1.99676e-7,46996.6
2.0786099999999998e-7,46382.5
2.1638199999999999e-7,45778.4
2.2525199999999998e-7,45184.3
2.3448699999999997e-7,44599.700000000004
2.44099e-7,44024.6
2.54106e-7,43458.8
2.6508299999999997e-7,42873.1
2.76533e-7,42296.5
2.88479e-7,41729.0
3.0094e-7,41170.600000000006
3.1394e-7,40620.799999999996
3.27502e-7,40079.6
3.4164899999999996e-7,39546.6
3.5640699999999997e-7,39021.6
3.71803e-7,38504.299999999996
3.87864e-7,37994.5
4.04619e-7,37491.9
4.22097e-7,36996.4
4.40331e-7,36507.6
4.5935199999999994e-7,36025.299999999996
4.79195e-7,35549.3
4.998949999999999e-7,35079.5
5.214889999999999e-7,34615.5
5.440159999999999e-7,34157.3
5.68716e-7,33682.1
5.9454e-7,33212.299999999996
6.21535e-7,32748.2
6.497569999999999e-7,32289.2
6.79258e-7,31835.399999999998
7.101019999999999e-7,31386.4
7.42343e-7,30942.1
7.76051e-7,30502.2
8.112859999999999e-7,30066.5
8.481249999999999e-7,29634.800000000003
8.86633e-7,29207.100000000002
9.268929999999999e-7,28783.4
9.68977e-7,28362.699999999997
1.01367e-6,27938.9
1.0645899999999999e-6,27481.9
1.12595e-6,26963.8
1.20764e-6,26323.6
1.30441e-6,25625.100000000002
1.42873e-6,24808.9
1.5870599999999998e-6,23880.4
1.7752799999999998e-6,22899.5
2.01385e-6,21810.2
2.3166999999999998e-6,20620.8
2.6280199999999998e-6,19559.899999999998
2.98117e-6,18514.600000000002
3.33473e-6,17599.100000000002
3.75636e-6,16640.3
4.20186e-6,15754.2
4.70019e-6,14885.5
5.22106e-6,14088.0
5.79936e-6,13307.599999999999
6.44204e-6,12548.0
7.1058e-6,11855.0
7.837959999999999e-6,11178.9
8.64556e-6,10521.0
9.53638e-6,9881.529999999999
1.04453e-5,9301.06
1.14414e-5,8734.05
1.2531900000000001e-5,8179.8099999999995
1.3727000000000001e-5,7636.88
1.48261e-5,7191.3099999999995
1.57913e-5,6844.34
1.65845e-5,6600.86
1.7176100000000003e-5,6456.46
1.7664100000000003e-5,6374.5599999999995
1.8096e-5,6346.2699999999995
1.83513e-5,6357.96
1.86102e-5,6399.969999999999
1.8872800000000003e-5,6484.47
1.90725e-5,6586.68
1.9274000000000002e-5,6734.200000000001
1.9409000000000003e-5,6864.849999999999
1.9546e-5,7030.1
1.96829e-5,7235.929999999999
1.98217e-5,7496.25
1.99258e-5,7733.51
2.0031000000000002e-5,8017.599999999999
2.01366e-5,8357.02
2.0242200000000004e-5,8761.960000000001
2.03136e-5,9081.429999999998
2.0385000000000002e-5,9444.599999999999
2.0456300000000003e-5,9858.22
2.0527700000000003e-5,10330.699999999999
2.0600100000000003e-5,10880.5
2.0654400000000003e-5,11347.400000000001
2.07088e-5,11868.4
2.07631e-5,12451.300000000001
2.08174e-5,13105.500000000002
2.08724e-5,13853.1
2.0927500000000002e-5,14699.3
2.0982599999999998e-5,15660.9
2.10193e-5,16375.800000000001
2.1056e-5,17157.8
2.1092700000000002e-5,18015.1
2.11332e-5,19059.2
2.11774e-5,20336.5
2.12106e-5,21401.500000000004
2.12438e-5,22571.2
2.12769e-5,23859.0
2.1305100000000004e-5,25054.699999999997
2.13392e-5,26650.7
2.1366100000000002e-5,28035.600000000002
2.1395600000000002e-5,29700.7
2.14291e-5,31796.600000000002
2.1456000000000003e-5,33664.8
2.1488200000000002e-5,36144.1
2.15137e-5,38336.2
2.15354e-5,40363.100000000006
2.1561000000000002e-5,42988.1
2.1587200000000002e-5,45973.7
2.1613500000000002e-5,49300.100000000006
2.16332e-5,52050.4
2.1652900000000004e-5,55048.3
2.1672600000000003e-5,58324.4
2.1692200000000002e-5,61913.7
2.1711900000000005e-5,65857.09999999999
2.1731600000000004e-5,70202.5
2.17513e-5,75006.1
2.1771e-5,80334.59999999999
2.17889e-5,85685.7
2.1806700000000002e-5,91603.5
2.18246e-5,98171.70000000001
2.1842400000000003e-5,105490.0
2.1858100000000003e-5,112665.0
2.1873900000000004e-5,120617.0
2.18897e-5,129462.00000000001
2.1905400000000002e-5,139345.0
2.1915900000000005e-5,146594.0
2.19264e-5,154441.0
2.1936900000000003e-5,162957.0
2.19474e-5,172222.0
2.1957900000000002e-5,182332.0
2.19684e-5,193398.0
2.1978900000000004e-5,205552.0
2.19894e-5,218950.99999999997
2.1999900000000003e-5,233784.0
2.2010400000000002e-5,250277.0
2.2018800000000003e-5,264851.0
2.2027199999999998e-5,280832.0
2.2035600000000003e-5,298420.0
2.2044000000000004e-5,317849.0
2.20524e-5,339400.0
2.20608e-5,363400.0
2.2067100000000004e-5,383242.0
2.20734e-5,404868.99999999994
2.2080500000000003e-5,431607.0
2.20863e-5,455508.0
2.2092e-5,481538.0
2.20978e-5,509935.0
2.2103600000000003e-5,540962.0
2.2109400000000002e-5,574911.0
2.21151e-5,612104.0
2.21209e-5,652894.0
2.2126400000000002e-5,695539.0
2.21317e-5,739857.0
2.2136900000000005e-5,788131.0
2.2142200000000003e-5,840719.0
2.21474e-5,898001.0
2.21527e-5,960375.9999999999
2.2157900000000003e-5,1.02826e6
2.21632e-5,1.10209e6
2.2168000000000002e-5,1.17481e6
2.21744e-5,1.28212e6
2.2180900000000003e-5,1.40055e6
2.21873e-5,1.53094e6
2.2193800000000004e-5,1.67409e6
2.22002e-5,1.83072e6
2.22057e-5,1.97418e6
2.2211200000000002e-5,2.1281e6
2.22166e-5,2.29273e6
2.2222100000000002e-5,2.46827e6
2.2228400000000002e-5,2.68447e6
2.22347e-5,2.91522e6
2.2241000000000003e-5,3.16023e6
2.2249400000000004e-5,3.50813e6
2.22578e-5,3.87832e6
2.22683e-5,4.36775e6
2.22851e-5,5.19257e6
2.2306100000000003e-5,6.23244e6
2.23187e-5,6.81806e6
2.2327100000000002e-5,7.17609e6
2.2335500000000003e-5,7.49905e6
2.23439e-5,7.77955e6
2.2352300000000003e-5,8.01093e6
2.2361100000000002e-5,8.19486e6
2.2365700000000002e-5,8.265370000000001e6
2.2374100000000003e-5,8.3459e6
2.23808e-5,8.364979999999999e6
2.2388400000000004e-5,8.337859999999999e6
2.2396800000000002e-5,8.248250000000001e6
2.24056e-5,8.089359999999999e6
2.2412800000000003e-5,7.91515e6
2.24212e-5,7.6626e6
2.2429600000000003e-5,7.36453e6
2.2438e-5,7.028e6
2.24506e-5,6.46782e6
2.24674e-5,5.6588e6
2.24884e-5,4.63073e6
2.2501000000000004e-5,4.04214e6
2.2509400000000002e-5,3.67132e6
2.2517800000000003e-5,3.32159e6
2.25262e-5,2.99517e6
2.25325e-5,2.76652e6
2.2538800000000002e-5,2.55205e6
2.25461e-5,2.31986e6
2.2552400000000005e-5,2.13611e6
2.25587e-5,1.96613e6
2.2565e-5,1.80947e6
2.25711e-5,1.67017e6
2.2577e-5,1.54645e6
2.2582900000000004e-5,1.43274e6
2.2588700000000003e-5,1.32845e6
2.25946e-5,1.23298e6
2.26005e-5,1.1457e6
2.26064e-5,1.06602e6
2.26123e-5,993329.0
2.2618900000000005e-5,919206.9999999999
2.26244e-5,863088.0
2.26299e-5,811652.0
2.26354e-5,764496.0
2.2640900000000002e-5,721247.0
2.26464e-5,681556.0
2.2652000000000003e-5,645101.0
2.2659300000000002e-5,601017.0
2.26667e-5,561521.0
2.2674e-5,526052.0
2.2681100000000002e-5,495197.0
2.26882e-5,467234.0
2.2695300000000003e-5,441821.0
2.27024e-5,418659.0
2.27094e-5,397486.0
2.2716500000000005e-5,378077.0
2.2726000000000002e-5,354603.0
2.2735400000000003e-5,333518.0
2.2744900000000003e-5,314490.0
2.27548e-5,296332.0
2.27654e-5,279069.0
2.2775900000000003e-5,263446.0
2.2786300000000002e-5,249249.0
2.2796900000000002e-5,236296.99999999997
2.2807300000000004e-5,224440.00000000003
2.28179e-5,213550.0
2.28336e-5,198795.0
2.28483e-5,186500.0
2.2863000000000005e-5,175428.0
2.2877700000000003e-5,165413.0
2.28924e-5,156319.0
2.29071e-5,148033.0
2.29218e-5,140457.0
2.2936500000000003e-5,133510.0
2.29512e-5,127121.0
2.2971700000000002e-5,119042.0
2.2992100000000003e-5,111793.00000000001
2.3012600000000004e-5,105261.0
2.3033100000000005e-5,99351.2
2.30536e-5,93985.59999999999
2.30741e-5,89097.2
2.30945e-5,84629.5
2.3115e-5,80534.3
2.31413e-5,75763.5
2.31675e-5,71463.8
2.3193800000000005e-5,67573.6
2.322e-5,64041.3
2.32462e-5,60823.200000000004
2.32725e-5,57882.2
2.3298700000000004e-5,55186.6
2.3325e-5,52709.1
2.33539e-5,50207.8
2.33972e-5,46839.8
2.3440500000000004e-5,43866.8
2.3483800000000004e-5,41228.100000000006
2.3527100000000004e-5,38873.700000000004
2.3576800000000004e-5,36472.0
2.36183e-5,34671.1
2.3659900000000004e-5,33034.6
2.3701400000000003e-5,31542.8
2.3763700000000004e-5,29540.0
2.3826000000000002e-5,27777.6
2.3888300000000003e-5,26217.5
2.3951500000000003e-5,24810.3
2.4014700000000006e-5,23553.199999999997
2.4077900000000002e-5,22424.8
2.41411e-5,21407.3
2.4225400000000004e-5,20198.2
2.4310800000000004e-5,19117.9
2.4396200000000002e-5,18161.0
2.4481700000000003e-5,17308.399999999998
2.4567100000000004e-5,16545.2
2.4653800000000004e-5,15849.800000000001
2.47838e-5,14929.699999999999
2.4913700000000002e-5,14131.3
2.5045500000000003e-5,13424.199999999999
2.51773e-5,12802.6
2.5309800000000003e-5,12249.699999999999
2.54434e-5,11752.7
2.5621700000000002e-5,11169.3
2.5802400000000002e-5,10653.699999999999
2.5983100000000002e-5,10200.7
2.61664e-5,9793.95
2.6349700000000003e-5,9431.25
2.6628500000000004e-5,8948.39
2.691e-5,8528.539999999999
2.7194e-5,8159.2
2.74808e-5,7830.92
2.78685e-5,7441.81
2.82616e-5,7099.389999999999
2.86604e-5,6792.32
2.9064700000000003e-5,6513.93
2.9682700000000003e-5,6138.2300000000005
3.03123e-5,5801.9800000000005
3.09568e-5,5494.19
3.1613400000000005e-5,5209.25
3.25118e-5,4855.54
3.34356e-5,4526.5599999999995
3.4385700000000005e-5,4221.39
3.51168e-5,4011.2500000000005
3.58617e-5,3825.08
3.636760000000001e-5,3720.83
3.688070000000001e-5,3640.21
3.72709e-5,3601.5
3.764e-5,3588.65
3.7905500000000005e-5,3597.5
3.8171000000000004e-5,3625.13
3.8440300000000005e-5,3676.61
3.86422e-5,3733.94
3.88461e-5,3811.25
3.90509e-5,3912.17
3.9255700000000004e-5,4040.65
3.9463400000000006e-5,4203.74
3.9601800000000004e-5,4334.86
3.97403e-5,4486.67
3.98971e-5,4686.92
4.0028600000000005e-5,4881.42
4.016e-5,5103.74
4.03025e-5,5380.77
4.0400000000000006e-5,5594.8
4.0525e-5,5902.25
4.0652500000000004e-5,6259.26
4.0770000000000004e-5,6632.71
4.0860000000000005e-5,6951.450000000001
4.096e-5,7343.06
4.105000000000001e-5,7733.120000000001
4.114e-5,8163.0599999999995
4.124e-5,8693.26
4.134000000000001e-5,9285.93
4.144e-5,9949.769999999999
4.1515000000000005e-5,10500.5
4.1577500000000006e-5,10997.9
4.165250000000001e-5,11645.9
4.17275e-5,12355.3
4.1802500000000005e-5,13133.2
4.1865e-5,13839.5
4.194e-5,14764.8
4.2015000000000003e-5,15784.800000000001
4.209e-5,16911.6
4.2165e-5,18159.2
4.224e-5,19543.8
4.2315e-5,21084.399999999998
4.239e-5,22803.399999999998
4.244e-5,24061.4
4.249e-5,25419.3
4.2539999999999996e-5,26887.2
4.2590000000000004e-5,28476.4
4.2640000000000005e-5,30199.899999999998
4.27e-5,32466.1
4.2760000000000004e-5,34975.7
4.282000000000001e-5,37762.799999999996
4.288e-5,40867.4
4.292e-5,43136.700000000004
4.296000000000001e-5,45584.100000000006
4.30125e-5,49097.299999999996
4.3065e-5,52995.9
4.31175e-5,57335.700000000004
4.3152500000000004e-5,60506.1
4.31875e-5,63924.8
4.322250000000001e-5,67617.4
4.326500000000001e-5,72512.4
4.330250000000001e-5,77251.0
4.334e-5,82432.9
4.33775e-5,88113.1
4.3415000000000004e-5,94355.4
4.34535e-5,101427.0
4.349400000000001e-5,109693.0
4.3521000000000006e-5,115737.0
4.3548000000000004e-5,122259.99999999999
4.3575e-5,129311.0
4.3602e-5,136948.0
4.3629e-5,145238.0
4.3656000000000004e-5,154255.0
4.3686e-5,165233.0
4.3716e-5,177355.0
4.3746000000000004e-5,190783.0
4.3776e-5,205710.00000000003
4.380600000000001e-5,222366.99999999997
4.3826000000000004e-5,234567.0
4.3846e-5,247752.00000000003
4.3865999999999996e-5,262031.0
4.3886000000000006e-5,277530.0
4.3906e-5,294391.0
4.3926e-5,312779.0
4.3946e-5,332885.0
4.3966000000000006e-5,354933.0
4.3984e-5,376651.0
4.4000000000000006e-5,397632.0
4.401600000000001e-5,420378.0
4.4032e-5,445096.0
4.4048e-5,472027.0
4.4064e-5,501449.00000000006
4.4080000000000005e-5,533690.0
4.4096000000000006e-5,569132.0
4.4111000000000005e-5,605670.0
4.4125e-5,643060.0
4.4139000000000005e-5,684056.0
4.415300000000001e-5,729154.0
4.4167e-5,778940.0
4.4181e-5,834104.9999999999
4.4195000000000006e-5,895471.0
4.420550000000001e-5,946144.0
4.4216e-5,1.00133e6
4.4226000000000007e-5,1.05857e6
4.423600000000001e-5,1.12093e6
4.4246e-5,1.18901e6
4.4256000000000005e-5,1.26347e6
4.4266e-5,1.34508e6
4.4276e-5,1.43469e6
4.428600000000001e-5,1.53324e6
4.4296000000000004e-5,1.64178e6
4.430360000000001e-5,1.73166e6
4.4311200000000004e-5,1.82853e6
4.43188e-5,1.93297e6
4.43264e-5,2.0455999999999998e6
4.4334e-5,2.16709e6
4.434160000000001e-5,2.29812e6
4.4349200000000006e-5,2.43943e6
4.43568e-5,2.59174e6
4.4364800000000006e-5,2.76483e6
4.437280000000001e-5,2.95188e6
4.438080000000001e-5,3.15382e6
4.4388800000000004e-5,3.37156e6
4.43968e-5,3.606e6
4.4404800000000006e-5,3.85798e6
4.44128e-5,4.1283200000000005e6
4.44208e-5,4.41771e6
4.4428800000000004e-5,4.7268e6
4.44368e-5,5.05607e6
4.444880000000001e-5,5.58855e6
4.4460800000000006e-5,6.16761e6
4.4472800000000006e-5,6.79258e6
4.4484800000000005e-5,7.46152e6
