E(MeV),xs(mb)
1.0e-11,9.88579e7
1.03223e-11,9.73023e7
1.06549e-11,9.57718e7
1.0998399999999998e-11,9.42647e7
1.13527e-11,9.2782e7
1.1718599999999999e-11,9.132199999999999e7
1.2096199999999998e-11,8.98855e7
1.24861e-11,8.84711e7
1.2888399999999999e-11,8.70795e7
1.3303799999999998e-11,8.57093e7
1.37325e-11,8.43611e7
1.41751e-11,8.303369999999999e7
1.4631799999999997e-11,8.17276e7
1.51034e-11,8.04416e7
1.5590099999999998e-11,7.91763e7
1.6092599999999998e-11,7.79305e7
1.66111e-11,7.67047e7
1.71465e-11,7.54977e7
1.7699e-11,7.43102e7
1.8269399999999998e-11,7.3141e7
1.88581e-11,7.19905e7
1.94659e-11,7.08578e7
2.00931e-11,6.97432e7
2.0740699999999998e-11,6.86459e7
2.1408999999999998e-11,6.75661e7
2.2099099999999997e-11,6.6503e7
2.28111e-11,6.5457e7
2.3546399999999998e-11,6.44271e7
2.4305099999999997e-11,6.341370000000001e7
2.50884e-11,6.2416e7
2.5896799999999997e-11,6.143430000000001e7
2.67315e-11,6.046770000000001e7
2.75928e-11,5.951660000000001e7
2.8482199999999998e-11,5.85802e7
2.93999e-11,5.76588e7
3.0347499999999995e-11,5.675169999999999e7
3.13253e-11,5.5859e7
3.2335e-11,5.49802e7
3.33769e-11,5.41155e7
3.44526e-11,5.32641e7
3.55627e-11,5.24264e7
3.67089e-11,5.16016e7
3.7891799999999997e-11,5.079e7
3.9113e-11,4.9991e7
4.0373400000000003e-11,4.92047e7
4.1674599999999996e-11,4.84306e7
4.3017399999999996e-11,4.76689e7
4.440389999999999e-11,4.691900000000001e7
4.58347e-11,4.61811e7
4.7311899999999994e-11,4.54546e7
4.883639999999999e-11,4.47398e7
5.0410399999999995e-11,4.4036e7
5.20348e-11,4.33434e7
5.37119e-11,4.26616e7
5.54426e-11,4.19907e7
5.7229499999999995e-11,4.13302e7
5.907359999999999e-11,4.06802e7
6.09775e-11,4.00403e7
6.29424e-11,3.94106e7
6.497099999999999e-11,3.87907e7
6.70645e-11,3.81807e7
6.9226e-11,3.75802e7
7.145659999999999e-11,3.69892e7
7.37596e-11,3.64074e7
7.61364e-11,3.58349e7
7.85902e-11,3.52713e7
8.11227e-11,3.47167e7
8.37372e-11,3.41707e7
8.643549999999999e-11,3.36334e7
8.922119999999998e-11,3.31044e7
9.209619999999999e-11,3.25839e7
9.506439999999999e-11,3.20715e7
9.81277e-11,3.15672e7
1.01291e-10,3.1070700000000004e7
1.04554e-10,3.05823e7
1.07924e-10,3.0101300000000004e7
1.11402e-10,2.96281e7
1.1499200000000001e-10,2.91622e7
1.1869700000000001e-10,2.87038e7
1.22523e-10,2.82524e7
1.26471e-10,2.78083e7
1.30547e-10,2.7371e7
1.34754e-10,2.69408e7
1.3909700000000002e-10,2.65172e7
1.43579e-10,2.61004e7
1.48207e-10,2.569e7
1.52982e-10,2.52862e7
1.57913e-10,2.48887e7
1.6300100000000001e-10,2.44975e7
1.68254e-10,2.41124e7
1.73676e-10,2.3733399999999996e7
1.79274e-10,2.33603e7
1.8505000000000002e-10,2.2993199999999996e7
1.91014e-10,2.2631800000000004e7
1.97169e-10,2.22762e7
2.03524e-10,2.1926e7
2.1008200000000003e-10,2.15815e7
2.16853e-10,2.12423e7
2.2384e-10,2.09086e7
2.31055e-10,2.058e7
2.385e-10,2.0256599999999996e7
2.46187e-10,1.99383e7
2.5412e-10,1.96251e7
2.6231e-10,1.93167e7
2.70762e-10,1.90133e7
2.7948900000000003e-10,1.87146e7
2.88494e-10,1.84206e7
2.9779300000000004e-10,1.81312e7
3.07388e-10,1.78465e7
3.1729500000000004e-10,1.75661e7
3.27519e-10,1.72902e7
3.38075e-10,1.70187e7
3.4896900000000003e-10,1.67514e7
3.6021600000000004e-10,1.64883e7
3.7182300000000004e-10,1.6229499999999998e7
3.83807e-10,1.5974600000000002e7
3.96174e-10,1.5723800000000002e7
4.08943e-10,1.54769e7
4.2212e-10,1.5234e7
4.3572499999999996e-10,1.49948e7
4.4976500000000005e-10,1.47594e7
4.6426100000000007e-10,1.4527699999999998e7
4.79221e-10,1.42998e7
4.94666e-10,1.40753e7
5.10605e-10,1.38545e7
5.270620000000001e-10,1.3637e7
5.440450000000001e-10,1.3423099999999998e7
5.6158e-10,1.32125e7
5.796750000000001e-10,1.3005199999999998e7
5.98358e-10,1.28012e7
6.176389999999999e-10,1.26004e7
6.37545e-10,1.24028e7
6.58089e-10,1.22083e7
6.79298e-10,1.20168e7
7.01188e-10,1.1828399999999998e7
7.237860000000001e-10,1.16429e7
7.47109e-10,1.14604e7
7.71188e-10,1.12808e7
7.960380000000001e-10,1.1104e7
8.21693e-10,1.093e7
8.48171e-10,1.0758700000000002e7
8.75507e-10,1.05901e7
9.037190000000002e-10,1.0424199999999998e7
9.32845e-10,1.02609e7
9.62904e-10,1.01002e7
9.93937e-10,9.94206e6
1.0259700000000001e-9,9.7864e6
1.05903e-9,9.63317e6
1.09316e-9,9.48239e6
1.12839e-9,9.33397e6
1.16475e-9,9.18792e6
1.2022900000000002e-9,9.04415e6
1.2410300000000002e-9,8.90267e6
1.28103e-9,8.76341e6
1.3223100000000002e-9,8.62638e6
1.36492e-9,8.49148e6
1.4089000000000002e-9,8.358750000000001e6
1.4543100000000001e-9,8.22809e6
1.5011699999999999e-9,8.09952e6
1.5495600000000002e-9,7.97296e6
1.5994900000000002e-9,7.84843e6
1.6510400000000001e-9,7.72585e6
1.7042400000000001e-9,7.60522e6
1.75917e-9,7.48649e6
1.81585e-9,7.36966e6
1.87438e-9,7.25466e6
1.9347700000000003e-9,7.1415e6
1.99713e-9,7.03012e6
2.06148e-9,6.92052e6
2.1279200000000002e-9,6.81264e6
2.19649e-9,6.70649e6
2.26728e-9,6.60201e6
2.3403400000000002e-9,6.4992e6
2.4157700000000002e-9,6.39801e6
2.49362e-9,6.29844e6
2.5739800000000002e-9,6.20044e6
2.65692e-9,6.10402e6
2.7425500000000002e-9,6.00911e6
2.8309300000000003e-9,5.91572e6
2.92217e-9,5.82381e6
3.01633e-9,5.73337e6
3.11354e-9,5.64436e6
3.21387e-9,5.55678e6
3.3174500000000004e-9,5.47059e6
3.42435e-9,5.38578e6
3.53471e-9,5.30231e6
3.6486100000000003e-9,5.22018e6
3.7662000000000005e-9,5.13935e6
3.88757e-9,5.05983e6
4.01286e-9,4.98156e6
4.14217e-9,4.90456e6
4.2756600000000005e-9,4.82878e6
4.41344e-9,4.75423e6
4.55568e-9,4.68086e6
4.7024800000000005e-9,4.60868e6
4.85404e-9,4.53764e6
5.01045e-9,4.46776e6
5.17193e-9,4.39899e6
5.338590000000001e-9,4.33134e6
5.510650000000001e-9,4.26478e6
5.688220000000001e-9,4.19929e6
5.871540000000001e-9,4.13485e6
6.06075e-9,4.07146e6
6.256080000000001e-9,4.0090899999999995e6
6.4576700000000005e-9,3.94773e6
6.665790000000001e-9,3.88736e6
6.8805900000000005e-9,3.82798e6
7.1023400000000005e-9,3.76955e6
7.33121e-9,3.71208e6
7.56748e-9,3.65553e6
7.81133e-9,3.59992e6
8.06308e-9,3.5452e6
8.32291e-9,3.49138e6
8.59114e-9,3.43844e6
8.86798e-9,3.38638e6
9.15378e-9,3.33516e6
9.44875e-9,3.2848e6
9.753270000000001e-9,3.23526e6
1.0067600000000001e-8,3.18655e6
1.0392e-8,3.13864e6
1.07269e-8,3.09153e6
1.10726e-8,3.04521e6
1.1429400000000001e-8,2.99966e6
1.17978e-8,2.95487e6
1.21779e-8,2.91084e6
1.25704e-8,2.86755e6
1.29755e-8,2.82499e6
1.33937e-8,2.78314e6
1.3825300000000001e-8,2.74201e6
1.42708e-8,2.70157e6
1.4730700000000002e-8,2.66183e6
1.52054e-8,2.62276e6
1.56954e-8,2.58438e6
1.62012e-8,2.54665e6
1.67233e-8,2.50958e6
1.72623e-8,2.47316e6
1.78185e-8,2.43738e6
1.83928e-8,2.40223e6
1.89855e-8,2.36771e6
1.9597400000000002e-8,2.3338e6
2.02289e-8,2.30051e6
2.0880800000000003e-8,2.26782e6
2.15537e-8,2.23573e6
2.2248299999999998e-8,2.20423e6
2.2965200000000002e-8,2.17332e6
2.37054e-8,2.14298e6
2.4469300000000002e-8,2.11322e6
2.52522e-8,2.0842200000000002e6
2.5299999999999998e-8,2.0825e6
2.61154e-8,2.05388e6
2.69569e-8,2.02583e6
2.7825700000000004e-8,1.99832e6
2.8722400000000002e-8,1.97137e6
2.9648e-8,1.94495e6
3.0668300000000003e-8,1.91736e6
3.17236e-8,1.89039e6
3.2815200000000004e-8,1.86402e6
3.39444e-8,1.83826e6
3.51125e-8,1.8131e6
3.63208e-8,1.78854e6
3.7570600000000004e-8,1.76457e6
3.88635e-8,1.74119e6
4.02008e-8,1.71841e6
4.1584199999999995e-8,1.69621e6
4.3015100000000004e-8,1.6746e6
4.4495300000000005e-8,1.65358e6
4.60265e-8,1.63315e6
4.76103e-8,1.61333e6
4.92486e-8,1.5941e6
5.0943300000000005e-8,1.57547e6
5.26963e-8,1.55746e6
5.45097e-8,1.54005e6
5.63854e-8,1.52328e6
5.83257e-8,1.50713e6
6.03328e-8,1.49161e6
6.240890000000001e-8,1.47675e6
6.45565e-8,1.46255e6
6.67779e-8,1.44903e6
6.90758e-8,1.43619e6
7.14528e-8,1.42407e6
7.39116e-8,1.41267e6
7.6455e-8,1.40202e6
7.89186e-8,1.39275e6
8.14621e-8,1.38417e6
8.40871e-8,1.37632e6
8.67971e-8,1.36922e6
8.9594e-8,1.36289e6
9.24815e-8,1.35738e6
9.54616e-8,1.35272e6
9.85382e-8,1.34895e6
1.01714e-7,1.34612e6
1.0499199999999999e-7,1.34427e6
1.0814600000000001e-7,1.34348e6
1.0915399999999999e-7,1.34342e6
1.1243399999999999e-7,1.3439e6
1.15812e-7,1.34539e6
1.1929199999999998e-7,1.34798e6
1.22876e-7,1.35172e6
1.2629999999999999e-7,1.35629e6
1.29821e-7,1.36198e6
1.3343799999999998e-7,1.36887e6
1.37158e-7,1.37703e6
1.40682e-7,1.38577e6
1.4429799999999999e-7,1.39574e6
1.4800599999999998e-7,1.40702e6
1.5180999999999998e-7,1.41968e6
1.5538199999999998e-7,1.4326e6
1.59039e-7,1.44685e6
1.6278099999999998e-7,1.46251e6
1.66612e-7,1.47968e6
1.7017199999999997e-7,1.49667e6
1.73809e-7,1.51506e6
1.77523e-7,1.53493e6
1.8131699999999998e-7,1.55636e6
1.8519199999999998e-7,1.57944e6
1.8915e-7,1.60427e6
1.9278299999999999e-7,1.62818e6
1.9648799999999998e-7,1.65365e6
2.0026199999999997e-7,1.68074e6
2.0411e-7,1.70952e6
2.08031e-7,1.74006e6
2.1202899999999997e-7,1.77243e6
2.16102e-7,1.80665e6
2.2025499999999998e-7,1.84279e6
2.24961e-7,1.88521e6
2.2976899999999997e-7,1.93001e6
2.3517499999999999e-7,1.98194e6
2.4121899999999996e-7,2.0416500000000002e6
2.48993e-7,2.12025e6
2.61402e-7,2.2467e6
2.67554e-7,2.30797e6
2.72118e-7,2.35198e6
2.76175e-7,2.38962e6
2.79701e-7,2.42092e6
2.83273e-7,2.45101e6
2.8628399999999994e-7,2.47493e6
2.89326e-7,2.49758e6
2.92402e-7,2.51877e6
2.95509e-7,2.53825e6
2.98019e-7,2.55248e6
3.00551e-7,2.56536e6
3.0310399999999996e-7,2.57678e6
3.0567799999999997e-7,2.58663e6
3.0827399999999995e-7,2.59477e6
3.10893e-7,2.60111e6
3.13534e-7,2.60554e6
3.1552999999999997e-7,2.60753e6
3.17974e-7,2.60837e6
3.20438e-7,2.6074e6
3.22477e-7,2.6052e6
3.2452999999999996e-7,2.60171e6
3.2659399999999997e-7,2.59689e6
3.2867299999999997e-7,2.59073e6
3.30764e-7,2.5832e6
3.3287e-7,2.5743e6
3.34987e-7,2.56402e6
3.3712e-7,2.55235e6
3.39264e-7,2.53931e6
3.41424e-7,2.52488e6
3.43596e-7,2.50911e6
3.45783e-7,2.49198e6
3.47983e-7,2.47356e6
3.50198e-7,2.45383e6
3.53173e-7,2.4256e6
3.5617299999999997e-7,2.39525e6
3.59198e-7,2.36288e6
3.62249e-7,2.32862e6
3.65326e-7,2.2926e6
3.6920799999999995e-7,2.24536e6
3.73133e-7,2.19588e6
3.77897e-7,2.13406e6
3.8353199999999994e-7,2.0592800000000002e6
3.96729e-7,1.88211e6
4.02646e-7,1.80385e6
4.06925e-7,1.74832e6
4.11251e-7,1.69334e6
4.147439999999999e-7,1.64993e6
4.1826699999999997e-7,1.60714e6
4.2182e-7,1.56506e6
4.25403e-7,1.52378e6
4.2810899999999996e-7,1.49339e6
4.30834e-7,1.4635e6
4.3357499999999996e-7,1.43417e6
4.363349999999999e-7,1.40538e6
4.39111e-7,1.37719e6
4.4190599999999996e-7,1.34959e6
4.4471699999999994e-7,1.32261e6
4.47548e-7,1.29625e6
4.503949999999999e-7,1.27054e6
4.53263e-7,1.24546e6
4.56146e-7,1.22105e6
4.590499999999999e-7,1.19729e6
4.6196999999999995e-7,1.1742e6
4.64911e-7,1.15176e6
4.6786799999999996e-7,1.13001e6
4.70847e-7,1.1089e6
4.7384199999999996e-7,1.08848e6
4.76859e-7,1.06871e6
4.798919999999999e-7,1.04961e6
4.82947e-7,1.03115e6
4.86019e-7,1.0133700000000001e6
4.89113e-7,996218.0
4.92225e-7,979726.9999999999
4.95358e-7,963866.0
4.9851e-7,948651.0000000001
5.01683e-7,934055.0
5.04875e-7,920093.9999999999
5.08089e-7,906739.9999999999
5.113209999999999e-7,894008.0
5.14576e-7,881872.0000000001
5.17849e-7,870344.0
5.21146e-7,859399.9999999999
5.24461e-7,849051.0
5.278e-7,839274.0
5.31157e-7,830077.0
5.345389999999999e-7,821440.0
5.37939e-7,813368.0
5.41364e-7,805841.0
5.44808e-7,798863.0
5.48276e-7,792414.0
5.51764e-7,786494.0
5.55276e-7,781085.0
5.58809e-7,776183.0
5.62366e-7,771768.0
5.65943e-7,767834.0
5.695459999999999e-7,764357.0
5.73169e-7,761327.0
5.76818e-7,758719.0
5.80488e-7,756514.0
5.84183e-7,754684.0
5.89145e-7,752780.0
5.941489999999999e-7,751416.0
5.991959999999999e-7,750504.0
6.06388e-7,749788.0
6.222819999999999e-7,749012.0
6.28898e-7,748269.0
6.342399999999999e-7,747180.0
6.38274e-7,745966.0
6.42338e-7,744333.0
6.46424e-7,742217.0
6.50539e-7,739550.0
6.546770000000001e-7,736278.0
6.574519999999999e-7,733732.0
6.602379999999999e-7,730879.0
6.630359999999999e-7,727708.0
6.658459999999999e-7,724207.0
6.69334e-7,719417.0
6.72511e-7,714622.0
6.753619999999999e-7,709974.0
6.782239999999999e-7,704979.0
6.81098e-7,699639.0
6.839849999999999e-7,693959.0
6.86883e-7,687947.0
6.89794e-7,681611.0
6.927179999999999e-7,674962.0
6.97127e-7,664428.0
7.01562e-7,653280.0
7.060279999999999e-7,641564.0
7.105199999999999e-7,629361.0
7.15043e-7,616725.0
7.211159999999999e-7,599352.0
7.318679999999999e-7,567990.0
7.412119999999999e-7,540713.0
7.475079999999999e-7,522602.0
7.522669999999999e-7,509148.0
7.57052e-7,495873.0
7.618719999999999e-7,482803.0
7.66718e-7,469993.0
7.715989999999999e-7,457456.99999999994
7.76508e-7,445240.0
7.79799e-7,437275.0
7.831029999999999e-7,429460.99999999994
7.86422e-7,421804.0
7.89755e-7,414304.99999999994
7.93102e-7,406968.0
7.96463e-7,399794.0
7.99839e-7,392784.0
8.03228e-7,385939.0
8.066319999999999e-7,379259.0
8.100509999999999e-7,372743.0
8.13484e-7,366390.0
8.16932e-7,360199.0
8.203939999999998e-7,354168.0
8.2387e-7,348296.0
8.273619999999999e-7,342581.0
8.30868e-7,337019.0
8.343899999999999e-7,331608.0
8.37926e-7,326346.0
8.41477e-7,321230.0
8.450430000000001e-7,316257.0
8.48624e-7,311423.0
8.522209999999999e-7,306726.0
8.55833e-7,302163.0
8.594599999999999e-7,297731.0
8.631019999999999e-7,293426.0
8.6676e-7,289246.0
8.70433e-7,285186.0
8.74122e-7,281245.0
8.77826e-7,277420.0
8.815469999999999e-7,273706.0
8.852830000000001e-7,270102.0
8.890349999999999e-7,266605.0
8.92802e-7,263211.0
8.965859999999998e-7,259919.0
9.003859999999999e-7,256725.0
9.04202e-7,253627.0
9.080339999999999e-7,250622.0
9.118819999999999e-7,247708.0
9.15746e-7,244883.0
9.215759999999999e-7,240804.00000000003
9.27439e-7,236913.99999999997
9.333429999999999e-7,233199.99999999997
9.392799999999999e-7,229660.00000000003
9.4526e-7,226284.99999999997
9.512729999999999e-7,223071.99999999997
9.573289999999999e-7,220011.0
9.63419e-7,217101.0
9.69552e-7,214335.0
9.75719e-7,211709.0
9.819309999999999e-7,209218.0
9.88177e-7,206859.0
9.94468e-7,204626.99999999997
1.00079e-6,202520.0
1.00504e-6,201182.99999999997
1.01213e-6,199076.0
1.01922e-6,197124.0
1.0264e-6,195297.0
1.0335899999999999e-6,193617.0
1.04089e-6,192057.0
1.0481799999999998e-6,190636.0
1.05557e-6,189332.0
1.0629599999999998e-6,188162.0
1.07046e-6,187107.0
1.07796e-6,186181.0
1.08937e-6,185007.0
1.10088e-6,184095.0
1.1125e-6,183439.0
1.12423e-6,183034.0
1.13745e-6,182871.0
1.14949e-6,182974.0
1.1616299999999998e-6,183302.0
1.1780200000000001e-6,184069.0
1.1946399999999998e-6,185173.0
1.2115e-6,186558.0
1.2635e-6,191509.0
1.28133e-6,193002.0
1.2994e-6,194144.0
1.31282e-6,194650.0
1.32576e-6,194798.0
1.33979e-6,194524.0
1.35395e-6,193742.0
1.3694900000000001e-6,192268.0
1.38425e-6,190262.0
1.39886e-6,187713.0
1.41361e-6,184615.0
1.4285699999999998e-6,180998.0
1.4436599999999998e-6,176944.0
1.4640299999999999e-6,170994.0
1.5375700000000001e-6,148118.0
1.55926e-6,141737.0
1.58126e-6,135663.0
1.6035699999999998e-6,129969.0
1.62619e-6,124696.99999999999
1.64914e-6,119866.0
1.6724e-6,115479.0
1.696e-6,111525.99999999999
1.7199199999999997e-6,107992.0
1.74419e-6,104856.0
1.7688e-6,102097.0
1.79375e-6,99695.0
1.8190599999999998e-6,97632.0
1.8447199999999998e-6,95892.70000000001
1.88394e-6,93864.5
1.9239e-6,92521.90000000001
1.9648099999999997e-6,91861.09999999999
1.98171e-6,91794.9
2.02384e-6,92162.90000000001
2.0524e-6,92859.20000000001
2.08135e-6,93958.99999999999
2.11072e-6,95513.20000000001
2.14049e-6,97589.2
2.17069e-6,100276.00000000001
2.2013199999999997e-6,103690.0
2.2245599999999996e-6,106817.0
2.2480099999999998e-6,110517.0
2.2717999999999996e-6,114919.0
2.29581e-6,120136.0
2.32004e-6,126335.0
2.3363499999999997e-6,131123.0
2.3527699999999998e-6,136524.0
2.3693099999999998e-6,142631.0
2.3859699999999997e-6,149558.0
2.40274e-6,157437.0
2.41963e-6,166430.0
2.43664e-6,176730.0
2.44945e-6,185438.0
2.46239e-6,195164.0
2.47533e-6,205947.0
2.48839e-6,218034.00000000003
2.5015e-6,231543.0
2.5146199999999997e-6,246584.0
2.52793e-6,263579.0
2.54123e-6,282515.0
2.5546e-6,303678.0
2.56809e-6,327377.0
2.5815800000000003e-6,353540.0
2.5952e-6,382475.0
2.60888e-6,413977.00000000006
2.62719e-6,459305.0
2.6595599999999997e-6,542782.0
2.6765599999999997e-6,583338.0
2.68926e-6,609426.0
2.69979e-6,627154.0
2.7103299999999997e-6,640497.0
2.71932e-6,647970.0
2.7297199999999996e-6,651806.0
2.73197e-6,651945.0
2.74082e-6,650123.0
2.74967e-6,644648.0
2.7602099999999997e-6,633752.0
2.77074e-6,618736.0
2.77777e-6,606840.0
2.7932199999999995e-6,576822.0
2.8334399999999997e-6,490874.0
2.8483e-6,461693.99999999994
2.86337e-6,435344.99999999994
2.8734199999999996e-6,419864.0
2.8834599999999997e-6,406137.0
2.89358e-6,394099.0
2.90377e-6,383755.0
2.91395e-6,375130.0
2.92414e-6,368125.0
2.93957e-6,360321.0
2.95507e-6,355393.0
2.97385e-6,352366.0
3.02175e-6,349321.0
3.04088e-6,345538.0
3.05402e-6,340946.0
3.06598e-6,335132.0
3.07912e-6,326885.0
3.09506e-6,314461.0
3.111e-6,299832.0
3.1349e-6,275235.0
3.17058e-6,237198.00000000003
3.1872099999999996e-6,220427.00000000003
3.20407e-6,204575.0
3.22094e-6,190064.0
3.23788e-6,176890.0
3.25498e-6,164990.0
3.27208e-6,154411.0
3.28934e-6,144958.0
3.30668e-6,136577.0
3.32402e-6,129190.99999999999
3.34161e-6,122598.0
3.3591899999999997e-6,116802.99999999999
3.37686e-6,111684.99999999999
3.3947e-6,107151.0
3.4125299999999995e-6,103177.00000000001
3.43053e-6,99668.9
3.45465e-6,95668.29999999999
3.47893e-6,92348.59999999999
3.5033799999999997e-6,89637.4
3.5280099999999998e-6,87478.3
3.55281e-6,85830.0
3.5777899999999996e-6,84664.90000000001
3.60293e-6,83967.9
3.62813e-6,83736.0
3.6537199999999996e-6,83976.6
3.6793199999999998e-6,84705.6
3.70527e-6,85965.0
3.7312199999999997e-6,87781.40000000001
3.75754e-6,90239.4
3.7838599999999996e-6,93377.09999999999
3.8038799999999996e-6,96262.1
3.8239e-6,99615.7
3.84402e-6,103494.0
3.86432e-6,107961.0
3.88462e-6,113015.0
3.90511e-6,118734.99999999999
3.9256999999999995e-6,125110.00000000001
3.94629e-6,132088.0
3.97412e-6,142343.0
4.027949999999999e-6,163335.0
4.05393e-6,172732.0
4.07092e-6,178059.0
4.08791e-6,182437.0
4.10362e-6,185437.0
4.11678e-6,187053.0
4.12995e-6,187781.0
4.13434e-6,187818.0
4.14923e-6,187173.0
4.16469e-6,185259.0
4.18015e-6,182149.0
4.19662e-6,177661.0
4.20795e-6,173973.0
4.2306e-6,165457.0
4.26044e-6,152783.0
4.30541e-6,133031.0
4.328109999999999e-6,123570.0
4.35081e-6,114738.0
4.37383e-6,106522.0
4.396849999999999e-6,99081.2
4.41997e-6,92366.9
4.44332e-6,86316.6
4.46666e-6,80934.1
4.4902199999999995e-6,76109.3
4.513889999999999e-6,71808.1
4.537569999999999e-6,67988.9
4.561569999999999e-6,64546.700000000004
4.58558e-6,61483.600000000006
4.6097e-6,58738.799999999996
4.6340399999999994e-6,56263.2
4.6665e-6,53358.5
4.69942e-6,50805.100000000006
4.73234e-6,48582.799999999996
4.76572e-6,46613.5
4.799109999999999e-6,44886.2
4.83296e-6,43344.6
4.88398e-6,41353.9
4.935469999999999e-6,39676.9
4.9877e-6,38251.5
5.040409999999999e-6,37043.1
5.075719999999999e-6,36343.5
5.14733e-6,35151.2
5.21995e-6,34206.7
5.29359e-6,33481.5
5.3682699999999995e-6,32953.700000000004
5.44401e-6,32619.1
5.5208199999999994e-6,32489.4
5.52779e-6,32488.800000000003
5.57381e-6,32534.0
5.632649999999999e-6,32724.5
5.69204e-6,33091.4
5.7522699999999996e-6,33686.0
5.80963e-6,34517.1
5.84691e-6,35233.5
5.89374e-6,36385.700000000004
5.92495e-6,37348.7
5.95617e-6,38506.6
5.98738e-6,39904.1
6.010789999999999e-6,41143.700000000004
6.0342e-6,42581.0
6.05762e-6,44254.2
6.08103e-6,46209.8
6.10444e-6,48505.6
6.12005e-6,50259.4
6.1356499999999994e-6,52220.2
6.15126e-6,54416.1
6.16687e-6,56878.700000000004
6.18248e-6,59643.2
6.1980799999999994e-6,62747.5
6.21369e-6,66231.9
6.2293e-6,70136.59999999999
6.24491e-6,74498.8
6.2605099999999995e-6,79347.3
6.27612e-6,84695.3
6.29173e-6,90530.7
6.30734e-6,96803.79999999999
6.33855e-6,110203.99999999999
6.36508e-6,121472.0
6.37913e-6,126865.99999999999
6.39162e-6,131061.0
6.40332e-6,134315.0
6.415029999999999e-6,136780.0
6.42642e-6,138320.0
6.43782e-6,138949.0
6.44e-6,138962.0
6.45202e-6,138422.0
6.46185e-6,137222.0
6.47356e-6,134963.0
6.48526e-6,131897.0
6.4973599999999996e-6,128016.0
6.5102299999999995e-6,123265.0
6.5352099999999996e-6,112958.0
6.566419999999999e-6,99666.3
6.582029999999999e-6,93368.90000000001
6.5976399999999996e-6,87483.5
6.61324e-6,82075.5
6.628849999999999e-6,77168.90000000001
6.644459999999999e-6,72758.5
6.66007e-6,68820.7
6.67567e-6,65321.100000000006
6.691279999999999e-6,62220.8
6.706889999999999e-6,59479.9
6.7225e-6,57060.00000000001
