E(MeV),xs(mb)
1.0e-11,46788.299999999996
1.03223e-11,46090.5
1.06549e-11,45404.600000000006
1.0998399999999998e-11,44729.700000000004
1.13527e-11,44066.4
1.1718599999999999e-11,43413.899999999994
1.2096199999999998e-11,42772.6
1.24861e-11,42141.700000000004
1.2888399999999999e-11,41521.600000000006
1.3303799999999998e-11,40911.7
1.37325e-11,40312.299999999996
1.41751e-11,39722.8
1.4631799999999997e-11,39143.5
1.51034e-11,38573.7
1.5590099999999998e-11,38013.9
1.6092599999999998e-11,37463.3
1.66111e-11,36922.4
1.71465e-11,36390.5
1.7699e-11,35867.9
1.8269399999999998e-11,35354.0
1.88581e-11,34849.2
1.94659e-11,34353.0
2.00931e-11,33865.5
2.07845e-11,33354.7
2.1499799999999998e-11,32853.5
2.2239599999999997e-11,32361.5
2.30049e-11,31878.8
2.3796499999999997e-11,31405.1
2.4615399999999995e-11,30940.3
2.5462399999999998e-11,30484.300000000003
2.6338599999999996e-11,30036.9
2.7245e-11,29598.0
2.81825e-11,29167.5
2.91523e-11,28745.3
3.01555e-11,28331.2
3.11931e-11,27925.0
3.22665e-11,27526.8
3.33769e-11,27136.300000000003
3.4525399999999997e-11,26753.5
3.5713499999999996e-11,26378.1
3.69424e-11,26010.2
3.8213599999999994e-11,25649.600000000002
3.95286e-11,25296.2
4.088879999999999e-11,24949.9
4.22959e-11,24610.5
4.37513e-11,24278.0
4.5256899999999995e-11,23952.300000000003
4.68142e-11,23633.3
4.8425099999999996e-11,23320.8
5.00915e-11,23014.800000000003
5.1815199999999997e-11,22715.100000000002
5.3598199999999996e-11,22421.7
5.54426e-11,22134.5
5.7472e-11,21836.000000000004
5.95754e-11,21544.3
6.17561e-11,21259.199999999997
6.401619999999999e-11,20980.699999999997
6.63594e-11,20708.600000000002
6.8788e-11,20442.9
7.13059e-11,20183.399999999998
7.39156e-11,19930.0
7.66212e-11,19682.7
7.942529999999999e-11,19441.3
8.233259999999999e-11,19205.7
8.53458e-11,18975.9
8.84697e-11,18751.7
9.17076e-11,18533.1
9.526529999999999e-11,18307.6
9.89612e-11,18088.0
1.0280000000000001e-10,17874.399999999998
1.06789e-10,17666.6
1.1093100000000001e-10,17464.4
1.15235e-10,17267.9
1.19705e-10,17076.8
1.2435000000000002e-10,16891.1
1.29448e-10,16700.7
1.34754e-10,16516.2
1.40278e-10,16337.2
1.4602800000000002e-10,16163.8
1.52015e-10,15995.8
1.5824600000000001e-10,15833.1
1.6473400000000002e-10,15675.5
1.7185e-10,15515.099999999999
1.79274e-10,15360.1
1.87018e-10,15210.5
1.9509600000000002e-10,15066.1
2.03954e-10,14919.9
2.1321599999999998e-10,14779.1
2.22896e-10,14643.6
2.33017e-10,14513.3
2.4411299999999997e-10,14382.0
2.55738e-10,14256.1
2.67915e-10,14135.4
2.81266e-10,14014.4
2.9528500000000003e-10,13898.699999999999
3.09999e-10,13788.1
3.26137e-10,13677.8
3.43115e-10,13572.699999999999
3.61743e-10,13468.4
3.81379e-10,13369.2
4.02933e-10,13271.2
4.2570600000000004e-10,13178.300000000001
4.5071899999999996e-10,13086.800000000001
4.77198e-10,13000.400000000001
5.063049999999999e-10,12915.7
5.38325e-10,12833.000000000002
5.73581e-10,12752.5
6.12437e-10,12674.5
6.53929e-10,12601.4
6.99708e-10,12530.8
7.50275e-10,12462.800000000001
8.079100000000001e-10,12395.7
8.718120000000001e-10,12331.6
9.42757e-10,12270.7
1.0238000000000001e-9,12211.4
1.11416e-9,12155.400000000001
1.2176400000000002e-9,12101.5
1.3363600000000001e-9,12050.0
1.47288e-9,12001.0
1.6302200000000002e-9,11954.7
1.8120200000000001e-9,11911.199999999999
2.02691e-9,11869.9
2.28171e-9,11830.9
2.59036e-9,11794.0
2.9657300000000003e-9,11759.5
3.42435e-9,11727.6
4.00437e-9,11697.699999999999
4.74242e-9,11670.199999999999
5.70027e-9,11645.2
6.98321e-9,11622.4
8.75618e-9,11601.8
1.1285300000000001e-8,11583.699999999999
1.51092e-8,11567.9
2.1237e-8,11554.3
2.52522e-8,11549.0
2.5299999999999998e-8,11549.0
3.97779e-8,11538.8
7.14528e-8,11530.9
1.64029e-7,11525.2
6.95244e-7,11521.9
0.0300379,10984.3
0.047237,10699.7
0.047251,10713.8
0.0472539,10783.6
0.0472563,10924.199999999999
0.047258699999999994,11073.4
0.04726,11099.5
0.0472615,11061.300000000001
0.047265499999999995,10811.900000000001
0.0472672,10745.499999999998
0.047270200000000005,10705.3
0.0676646,10338.199999999999
0.0679676,10336.9
0.0692808,10363.800000000001
0.0698616,10430.900000000001
0.0701899,10530.6
0.0703919,10657.4
0.0705245,10804.9
0.0706141,10962.400000000001
0.07067470000000001,11114.699999999999
0.0707353,11326.300000000001
0.0707808,11544.9
0.0708263,11842.999999999998
0.0708566,12106.6
0.0708869,12445.2
0.0709096,12766.900000000001
0.0709336,13192.699999999999
0.07095,13550.800000000001
0.0709669,13996.5
0.0709838,14541.900000000001
0.070999,15137.400000000001
0.0710104,15671.5
0.07102220000000001,16329.800000000001
0.0710303,16849.3
0.0710384,17438.100000000002
0.0710465,18108.8
0.0710545,18876.6
0.0710626,19760.4
0.0710707,20783.5
0.07107680000000001,21659.5
0.0710828,22644.8
0.0710889,23757.0
0.0710949,25016.699999999997
0.071101,26448.399999999998
0.0711071,28080.8
0.0711131,29947.6
0.0711172,31341.199999999997
0.0711212,32868.9
0.0711252,34544.4
0.0711293,36382.2
0.07113330000000001,38397.2
0.0711374,40604.1
0.07114140000000001,43016.4
0.0711452,45474.8
0.0711505,49246.9
0.07115579999999999,53401.7
0.0711611,57907.0
0.0711752,70668.8
0.0711803,75088.6
0.0711837,77733.1
0.07118719999999999,80016.9
0.0711906,81836.3
0.071194,83104.20000000001
0.0711975,83757.59999999999
0.0711992,83841.5
0.07120180000000001,83652.8
0.0712044,83087.0
0.0712079,81773.90000000001
0.0712114,79880.7
0.0712151,77333.2
0.071219,74175.0
0.07122490000000001,68880.1
0.0712366,57817.600000000006
0.0712425,52628.3
0.07124799999999999,48183.99999999999
0.0712515,45552.9
0.0712551,43104.1
0.0712586,40834.5
0.07126210000000001,38737.1
0.0712657,36803.2
0.0712692,35022.6
0.07127270000000001,33384.5
0.0712768,31673.100000000002
0.0712808,30118.0
0.0712849,28704.399999999998
0.0712889,27418.5
0.0712929,26247.5
0.071299,24681.5
0.0713051,23314.1
0.0713111,22115.999999999996
0.0713172,21062.699999999997
0.0713232,20133.3
0.0713293,19310.4
0.07133740000000001,18353.600000000002
0.0713455,17531.399999999998
0.0713535,16820.9
0.07136160000000001,16203.300000000001
0.0713697,15663.9
0.07137800000000001,15176.6
0.07139050000000001,14553.7
0.071403,14036.0
0.0714159,13590.1
0.0714288,13212.4
0.0714462,12790.4
0.07146390000000001,12443.599999999999
0.07148790000000001,12069.2
0.071503,11876.500000000002
0.07153330000000001,11567.0
0.0715636,11332.0
0.07160910000000001,11073.900000000001
0.0716546,10890.800000000001
0.0717253,10697.7
0.0718212,10537.099999999999
0.07194600000000001,10418.400000000001
0.0721399,10325.599999999999
0.0724752,10265.0
0.07283450000000001,10250.300000000001
0.073601,10287.800000000001
0.07427170000000001,10390.1
0.0747508,10529.4
0.075134,10711.0
0.0754214,10914.0
0.07566099999999999,11151.7
0.0758586,11412.1
0.0760107,11668.9
0.0761496,11961.2
0.0762742,12282.800000000001
0.0763987,12677.199999999999
0.0765137,13124.199999999999
0.0766095,13575.0
0.0767053,14111.7
0.076782,14620.3
0.0768586,15214.0
0.0769353,15910.800000000001
0.0769928,16517.6
0.0770502,17201.0
0.0771077,17987.7
0.0771652,18879.8
0.0772035,19549.9
0.0772419,20286.1
0.07728020000000001,21096.2
0.0773185,21989.100000000002
0.0773569,22974.600000000002
0.0773952,24063.8
0.0774335,25268.899999999998
0.07747180000000001,26603.6
0.0775101,28082.699999999997
0.0775485,29722.5
0.0775868,31539.899999999998
0.0776251,33552.3
0.0776635,35776.8
0.0777018,38229.1
0.07774009999999999,40921.1
0.07777840000000001,43859.0
0.0778167,47039.600000000006
0.07785510000000001,50445.799999999996
0.0779126,55901.4
0.07799880000000001,64309.200000000004
0.0780371,67840.4
0.0780754,71081.1
0.0781042,73153.9
0.0781329,74883.2
0.0781617,76186.0
0.0781875,76976.9
0.0782038,77290.7
0.0782287,77428.9
0.07825750000000001,77143.5
0.0782862,76409.5
0.07831500000000001,75239.8
0.0783437,73708.3
0.078382,71197.0
0.0784204,68303.2
0.07850660000000001,61118.3
0.0785832,54721.6
0.0786407,50281.0
0.0786791,47531.2
0.0787174,44970.299999999996
0.0787557,42599.799999999996
0.078794,40415.1
0.0788324,38407.5
0.0788707,36566.200000000004
0.078909,34879.3
0.0789473,33334.4
0.0789857,31919.4
0.079024,30622.8
0.0790623,29433.699999999997
0.0791198,27823.4
0.07917729999999999,26415.8
0.0792348,25159.8
0.0792923,24054.4
0.0793497,23061.899999999998
0.0794264,21905.5
0.079503,20904.4
0.0795797,20032.7
0.0796755,19095.3
0.0797713,18291.7
0.0798863,17475.4
0.08000130000000001,16786.9
0.0801258,16155.900000000001
0.08028869999999999,15475.000000000002
0.0804516,14911.9
0.0806312,14403.6
0.0808348,13935.1
0.0810744,13487.0
0.0813618,13063.499999999998
0.0816972,12680.199999999999
0.08208040000000001,12341.7
0.08255950000000001,12021.2
0.08313430000000001,11735.1
0.083841,11476.1
0.0848769,11199.6
0.08602499999999999,10962.0
0.0860957,10957.300000000001
0.08622289999999999,10980.300000000001
0.08629830000000001,11047.0
0.086336,11119.1
0.0863738,11244.7
0.08639989999999999,11387.9
0.0864176,11527.8
0.08643560000000002,11725.5
0.0864526,11986.000000000002
0.0864644,12233.099999999999
0.08647629999999999,12555.8
0.0864876,12961.1
0.08649520000000001,13303.3
0.08650270000000002,13721.6
0.08651030000000001,14237.599999999999
0.0865159,14705.8
0.0865216,15260.9
0.08652720000000001,15922.5
0.08653290000000001,16715.2
0.0865366,17331.2
0.0865404,18029.5
0.0865442,18821.7
0.086548,19721.0
0.0865517,20741.2
0.0865555,21896.300000000003
0.08655929999999999,23199.3
0.086563,24660.4
0.0865668,26283.9
0.0865701,27834.1
0.0865751,30350.199999999997
0.08658500000000001,35606.4
0.0865883,37209.4
0.0865916,38604.4
0.0865943,39555.9
0.08659660000000001,40145.799999999996
0.0865989,40551.1
0.0866011,40760.4
0.08660230000000001,40790.0
0.0866046,40693.9
0.08660690000000001,40393.8
0.08660999999999999,39703.8
0.0866131,38732.799999999996
0.08661630000000001,37545.9
0.08662089999999999,35505.4
0.08663090000000001,30867.300000000003
0.08663660000000001,28436.3
0.0866403,26961.6
0.0866441,25614.0
0.0866479,24392.6
0.0866517,23291.5
0.08665540000000001,22302.0
0.0866592,21414.2
0.086663,20617.800000000003
0.0866686,19573.6
0.0866743,18683.5
0.0866799,17921.7
0.0866856,17266.5
0.0866913,16700.3
0.08669879999999999,16058.8
0.0867063,15522.199999999999
0.08671390000000001,15069.300000000001
0.0867252,14512.400000000001
0.08673650000000001,14067.6
0.0867478,13706.9
0.0867606,13375.5
0.08677339999999999,13104.7
0.0867911,12805.2
0.0868095,12562.4
0.0868376,12282.1
0.0868564,12137.199999999999
0.0868941,11916.7
0.0869318,11758.1
0.0869997,11563.8
0.08708410000000001,11411.500000000002
0.0872222,11263.099999999999
0.0874484,11130.9
0.0878443,11010.800000000001
0.0886362,10885.6
0.0903708,10734.4
0.093523,10570.4
0.09954650000000001,10373.6
0.109374,10098.800000000001
0.112465,9955.34
0.114249,9810.18
0.115842,9623.66
0.115905,9621.980000000001
0.116159,9647.679999999998
0.116317,9717.43
0.11641200000000002,9800.53
0.116496,9916.560000000001
0.116576,10088.8
0.116622,10227.3
0.11666900000000001,10412.699999999999
0.11671000000000001,10619.9
0.11674800000000002,10862.099999999999
0.116786,11168.0
0.116815,11451.199999999999
0.11684300000000002,11792.800000000001
0.116872,12207.5
0.11690100000000002,12714.2
0.11692000000000001,13115.000000000002
0.116939,13576.999999999998
0.116958,14110.8
0.116977,14730.5
0.11699600000000002,15451.4
0.11701,16070.599999999999
0.117024,16767.399999999998
0.117038,17553.0
0.11705300000000002,18439.7
0.11706700000000002,19441.7
0.11708099999999999,20574.499999999996
0.117096,21855.4
0.11711,23302.3
0.117124,24934.2
0.11713800000000002,26767.9
0.11715300000000001,28817.7
0.11716700000000001,31091.3
0.11718100000000001,33586.1
0.117196,36438.299999999996
0.117217,40612.1
0.11724600000000002,46615.0
0.11726000000000002,49285.2
0.117271,50976.9
0.117282,52506.1
0.11729300000000001,53671.7
0.11730100000000002,54280.299999999996
0.11731000000000001,54642.299999999996
0.117317,54762.899999999994
0.11732800000000002,54574.99999999999
0.117339,54016.3
0.11735000000000001,53116.1
0.11736,51950.399999999994
0.117374,50188.1
0.117387,48196.399999999994
0.11743300000000001,40936.5
0.117452,38108.6
0.11747099999999999,35510.299999999996
0.11749000000000001,33163.8
0.117509,31068.8
0.11752800000000002,29209.2
0.11754700000000001,27564.600000000002
0.117566,26110.600000000002
0.11758500000000001,24825.2
0.117604,23686.5
0.11762300000000002,22675.9
0.11764200000000001,21776.2
0.117661,20973.199999999997
0.11769000000000002,19922.6
0.11771799999999999,19026.2
0.117747,18256.0
0.11777599999999999,17589.8
0.117814,16833.0
0.11785200000000001,16197.1
0.11789000000000001,15657.5
0.11793100000000001,15160.3
0.11797800000000001,14676.3
0.118024,14280.1
0.118085,13845.8
0.118156,13427.3
0.118251,12986.4
0.118346,12641.9
0.11847300000000001,12286.8
0.1186,12014.6
0.11875800000000002,11753.3
0.11898,11485.4
0.11925,11253.9
0.11959800000000001,11046.800000000001
0.120074,10858.300000000001
0.12074800000000002,10688.3
0.121738,10536.9
0.12332399999999999,10398.400000000001
0.12599800000000003,10270.999999999998
0.129667,10173.7
0.129958,10192.6
0.130039,10233.300000000001
0.130074,10282.6
0.130104,10378.400000000001
0.13012200000000002,10492.8
0.130134,10632.3
0.130141,10763.199999999999
0.13014900000000001,10956.1
0.130154,11158.5
0.130158,11338.900000000001
0.130161,11572.6
0.130164,11820.3
0.130166,12062.2
0.130168,12360.7
0.130171,12735.099999999999
0.130173,13119.6
0.13017399999999998,13484.9
0.13017600000000001,13920.1
0.13017700000000001,14442.4
0.130178,14904.2
0.13017900000000002,15437.8
0.13018000000000002,16055.8
0.130181,16770.9
0.130182,17598.0
0.13018400000000002,18549.899999999998
0.130185,19643.4
0.130186,20884.9
0.13018700000000002,22281.6
0.130188,23830.399999999998
0.130189,25521.5
0.130191,28330.5
0.130193,32903.3
0.130195,35032.4
0.130196,36744.0
0.130197,37812.1
0.130198,38651.9
0.130199,39233.2
0.1302,39533.299999999996
0.1302,39574.1
0.13020099999999998,39492.4
0.13020099999999998,39230.1
0.130202,38732.2
0.130203,37865.1
0.13020400000000001,36740.7
0.130205,35406.0
0.13020600000000002,33386.200000000004
0.13021000000000002,26653.3
0.130212,24562.9
0.130213,23066.5
0.13021400000000002,21606.6
0.130215,20299.399999999998
0.130216,19144.5
0.130217,18132.1
0.130218,17252.0
0.130219,16487.3
0.13022,15826.800000000001
0.130221,15255.4
0.130223,14761.1
0.130224,14201.8
0.130226,13714.5
0.130227,13309.5
0.130229,12969.800000000001
0.130231,12569.8
0.13023300000000002,12274.099999999999
0.130236,11958.4
0.13023800000000002,11709.199999999999
0.13024100000000002,11509.0
0.13024500000000003,11295.4
0.13025,11059.6
0.130256,10891.0
0.130263,10731.599999999999
0.13027,10619.5
0.130285,10474.699999999999
0.130304,10373.300000000001
0.130336,10285.2
0.13039,10222.3
0.130544,10173.8
0.131694,10129.900000000001
0.143613,9952.1
0.151566,9835.67
0.152566,9780.570000000002
0.152887,9714.01
0.153013,9644.71
0.153084,9565.699999999999
0.153134,9463.240000000002
0.153171,9330.38
0.153208,9136.5
0.153211,9131.37
0.15321600000000002,9153.980000000001
0.15322000000000002,9210.3
0.153222,9283.67
0.15322400000000003,9384.95
0.153226,9510.65
0.153227,9691.13
0.153229,9876.32
0.15323,10118.1
0.153231,10385.599999999999
0.153232,10719.6
0.153233,11022.9
0.153233,11377.3
0.153234,11790.300000000001
0.153235,12268.1
0.153236,12817.6
0.153237,13443.0
0.153237,14149.7
0.153238,14938.3
0.15323900000000001,15813.6
0.15324000000000002,16769.2
0.15324100000000002,18161.1
0.153242,19666.0
0.15324500000000002,24941.300000000003
0.15324700000000002,26534.2
0.15324800000000002,27863.3
0.153249,28963.7
0.153249,29559.000000000004
0.15325,30013.3
0.15325100000000003,30295.6
0.15325200000000003,30480.3
0.15325200000000003,30493.100000000002
0.15325200000000003,30447.199999999997
0.153253,30204.300000000003
0.153254,29768.0
0.15325500000000003,29009.999999999996
0.153256,28048.1
0.153257,26934.5
0.153259,24470.2
0.153262,22000.0
0.153263,20305.6
0.153264,19287.2
0.153265,18367.4
0.153266,17547.1
0.15326700000000001,16813.8
0.15326800000000002,16164.199999999999
0.15327000000000002,15599.099999999999
0.15327100000000002,15108.5
0.15327200000000002,14550.0
0.153273,14111.1
0.15327500000000002,13740.8
0.153277,13330.5
0.15327800000000003,12994.9
0.153281,12605.2
0.153284,12298.800000000001
0.153288,11945.4
0.153292,11678.699999999999
0.15329700000000002,11411.0
0.153303,11186.1
0.15331,10998.9
0.153318,10829.7
0.15333200000000002,10625.4
0.15335100000000002,10455.8
0.153371,10344.599999999999
0.15340700000000002,10220.1
0.153453,10127.900000000001
0.15355000000000002,10030.300000000001
0.153734,9955.220000000001
0.154182,9895.189999999999
0.15591900000000003,9837.92
0.16176600000000002,9732.25
0.16247,9680.71
0.162698,9623.56
0.16281600000000002,9546.099999999999
0.162878,9451.650000000001
0.162914,9348.72
0.16294200000000003,9205.67
0.162967,9038.34
0.16296900000000003,9036.51
0.162972,9056.02
0.162975,9115.019999999999
0.162976,9187.22
0.162978,9305.03
0.162979,9437.039999999999
0.16298,9582.91
0.16298200000000002,9813.09
0.16298200000000002,10036.5
0.162983,10312.300000000001
0.16298400000000002,10650.0
0.16298500000000002,10970.2
0.16298600000000002,11406.8
0.162987,11917.5
0.16298800000000002,12507.5
0.16298800000000002,13180.9
0.16298900000000002,13939.0
0.16299,14779.4
0.162991,15696.6
0.16299200000000003,17195.5
0.162995,21177.899999999998
0.16299600000000003,22603.9
0.162997,23583.699999999997
0.162998,24457.9
0.162999,25173.399999999998
0.163,25695.199999999997
0.163001,25963.4
0.163002,26141.800000000003
0.163002,26165.1
0.163003,26082.5
0.163004,25835.4
0.163004,25437.699999999997
0.163005,24907.8
0.163007,23914.2
0.163007,23154.6
0.16301100000000002,19430.0
0.16301200000000002,18271.5
0.163014,17219.2
0.16301500000000002,16540.3
0.16301600000000002,15885.6
0.16301600000000002,15303.9
0.163017,14791.4
0.16301900000000002,14208.400000000001
0.16302000000000003,13751.1
0.163021,13366.3
0.16302300000000003,12944.1
0.163024,12604.800000000001
0.163026,12251.4
0.163028,11975.1
0.163032,11658.5
0.163035,11420.6
0.16303900000000002,11181.9
0.163044,10969.800000000001
0.16305000000000003,10788.1
0.163057,10632.6
0.16306900000000002,10450.5
0.163085,10301.400000000001
0.163111,10156.0
0.16315100000000002,10038.5
0.163218,9942.28
0.16334400000000002,9865.5
0.16365400000000002,9801.47
0.16479500000000002,9741.11
0.166987,9654.87
0.167689,9576.84
0.167844,9554.76
0.16790700000000003,9577.3
0.16792600000000002,9612.769999999999
0.167944,9692.4
0.16795400000000002,9804.439999999999
0.16796,9907.220000000001
0.167964,10015.099999999999
0.167968,10174.2
0.167971,10350.1
0.167973,10511.1
0.167974,10716.5
0.16797600000000001,10982.199999999999
0.16797800000000002,11243.5
0.167979,11577.1
0.16798000000000002,11850.9
0.16798100000000002,12291.300000000001
0.16798200000000002,12679.9
0.167983,13135.699999999999
0.16798400000000002,13666.9
0.16798500000000002,14283.1
0.16798500000000002,14991.000000000002
0.167986,15711.699999999999
0.167987,16514.899999999998
0.16798800000000003,17403.2
0.16798800000000003,18373.5
0.16799,19977.3
0.167991,21725.500000000004
0.167994,26667.2
0.167995,28283.6
0.167996,29524.9
0.167997,30583.100000000002
0.167998,31427.399999999998
0.167998,31842.600000000002
0.167999,32124.3
0.168,32277.6
0.168,32283.0
0.168001,32202.5
0.168001,32005.6
0.168002,31633.9
0.168003,31117.7
0.16800400000000001,30101.2
0.16800500000000002,28798.6
0.16800600000000002,27305.899999999998
0.16800800000000002,24396.0
0.16801,21358.199999999997
0.16801100000000002,19662.8
0.16801200000000002,18617.5
0.16801200000000002,17649.600000000002
0.168013,16741.7
0.168014,15902.0
0.16801500000000003,15152.699999999999
0.16801600000000003,14490.099999999999
0.16801600000000003,13940.6
0.168017,13279.0
0.16801900000000003,12730.6
0.16802,12279.3
0.168021,11908.2
0.168022,11603.5
0.168023,11274.0
0.168025,11017.699999999999
0.168027,10757.2
0.168029,10561.7
0.16803200000000001,10347.599999999999
0.16803500000000002,10152.699999999999
0.16804,9999.44
0.168045,9880.699999999999
0.168055,9744.24
0.16806200000000002,9681.75
0.168082,9582.58
0.16811900000000002,9493.140000000001
0.16828,9278.01
0.168352,9138.18
0.16842100000000002,8956.08
0.168443,8928.140000000001
