E(MeV),xs(mb)
1.0e-11,86464.20000000001
1.03223e-11,85144.8
1.06549e-11,83847.40000000001
1.0998399999999998e-11,82570.5
1.13527e-11,81314.9
1.1718599999999999e-11,80079.1
1.2096199999999998e-11,78864.0
1.24861e-11,77668.2
1.2888399999999999e-11,76492.4
1.3303799999999998e-11,75335.3
1.37325e-11,74197.6
1.41751e-11,73078.1
1.4631799999999997e-11,71977.4
1.51034e-11,70894.3
1.5590099999999998e-11,69829.40000000001
1.6092599999999998e-11,68781.7
1.66111e-11,67751.5
1.71465e-11,66738.09999999999
1.7699e-11,65741.7
1.8269399999999998e-11,64761.4
1.88581e-11,63797.7
1.94659e-11,62849.700000000004
2.00931e-11,61917.799999999996
2.0740699999999998e-11,61001.1
2.1408999999999998e-11,60099.9
2.2099099999999997e-11,59213.6
2.28111e-11,58342.299999999996
2.3546399999999998e-11,57485.4
2.4305099999999997e-11,56643.100000000006
2.50884e-11,55814.700000000004
2.5896799999999997e-11,55000.5
2.67315e-11,54199.9
2.75928e-11,53413.00000000001
2.8482199999999998e-11,52639.3
2.93999e-11,51878.9
3.0347499999999995e-11,51131.3
3.13253e-11,50396.6
3.2335e-11,49674.3
3.33769e-11,48964.600000000006
3.44526e-11,48266.9
3.56381e-11,47535.99999999999
3.6864499999999996e-11,46818.5
3.8132999999999995e-11,46114.4
3.94452e-11,45423.200000000004
4.08026e-11,44744.9
4.22067e-11,44079.2
4.3659e-11,43426.0
4.5161399999999996e-11,42785.0
4.6715499999999995e-11,42156.0
4.8322999999999994e-11,41538.899999999994
4.998579999999999e-11,40933.5
5.1705899999999994e-11,40339.600000000006
5.3485199999999996e-11,39756.9
5.53257e-11,39185.4
5.7229499999999995e-11,38624.9
5.919879999999999e-11,38075.1
6.12359e-11,37535.9
6.33431e-11,37007.2
6.55228e-11,36488.8
6.77775e-11,35980.4
7.010979999999999e-11,35482.1
7.252239999999999e-11,34993.5
7.5018e-11,34514.6
7.75994e-11,34045.1
8.026969999999999e-11,33585.0
8.303190000000001e-11,33134.1
8.58891e-11,32692.3
8.88447e-11,32259.3
9.190189999999999e-11,31835.100000000002
9.506439999999999e-11,31419.5
9.85435e-11,30987.300000000003
1.02151e-10,30564.300000000003
1.0588900000000001e-10,30150.7
1.0976500000000001e-10,29746.100000000002
1.1378200000000001e-10,29350.5
1.1794700000000002e-10,28963.5
1.22264e-10,28585.3
1.26739e-10,28215.4
1.3137700000000002e-10,27853.9
1.36187e-10,27500.5
1.4117e-10,27155.100000000002
1.46338e-10,26817.5
1.51693e-10,26487.699999999997
1.57246e-10,26165.4
1.6300100000000001e-10,25850.6
1.6932400000000002e-10,25525.1
1.7589300000000003e-10,25207.7
1.82717e-10,24897.999999999996
1.89806e-10,24596.100000000002
1.97169e-10,24301.6
2.04818e-10,24014.5
2.12764e-10,23734.600000000002
2.2101799999999999e-10,23461.699999999997
2.2959299999999998e-10,23195.7
2.39006e-10,22922.2
2.4880300000000004e-10,22656.0
2.59003e-10,22397.0
2.6961900000000004e-10,22144.9
2.80673e-10,21899.600000000002
2.92178e-10,21661.0
3.0415700000000004e-10,21428.8
3.1729500000000004e-10,21191.300000000003
3.31002e-10,20960.5
3.453e-10,20736.3
3.6021600000000004e-10,20518.5
3.75777e-10,20307.0
3.9283800000000004e-10,20091.399999999998
4.1067600000000004e-10,19882.3
4.2932100000000003e-10,19679.5
4.4881700000000003e-10,19482.7
4.69194e-10,19291.899999999998
4.91536e-10,19098.1
5.14942e-10,18910.4
5.39463e-10,18728.6
5.65152e-10,18552.4
5.933180000000001e-10,18374.1
6.228850000000001e-10,18201.6
6.53929e-10,18034.600000000002
6.87972e-10,17866.2
7.237860000000001e-10,17703.4
7.61465e-10,17546.0
8.027990000000002e-10,17387.600000000002
8.46382e-10,17234.7
8.92325e-10,17087.0
9.42757e-10,16938.8
9.96039e-10,16795.899999999998
1.05233e-9,16658.0
1.11416e-9,16519.9
1.17962e-9,16386.8
1.25157e-9,16253.800000000001
1.32791e-9,16125.9
1.4118900000000002e-9,15998.300000000001
1.5011699999999999e-9,15875.6
1.5994900000000002e-9,15753.6
1.7042400000000001e-9,15636.4
1.8197000000000002e-9,15520.0
1.9429700000000004e-9,15408.3
2.07899e-9,15297.7
2.2245400000000003e-9,15191.6
2.3853100000000003e-9,15086.699999999999
2.56312e-9,14983.2
2.75418e-9,14884.1
2.9657300000000003e-9,14786.5
3.20031e-9,14690.6
3.4534400000000004e-9,14598.9
3.7344800000000005e-9,14508.9
4.0469400000000005e-9,14420.699999999999
4.39482e-9,14334.499999999998
4.78271e-9,14250.199999999999
5.21586e-9,14168.099999999999
5.70027e-9,14088.199999999999
6.24285e-9,14010.499999999998
6.85155e-9,13935.0
7.535540000000001e-9,13861.9
8.30534e-9,13791.199999999999
9.17314e-9,13722.8
1.01746e-8,13655.5
1.13092e-8,13590.800000000001
1.2597e-8,13528.500000000002
1.40909e-8,13467.7
1.58287e-8,13408.4
1.78185e-8,13351.800000000001
2.0143499999999998e-8,13296.9
2.2868300000000003e-8,13243.8
2.52522e-8,13204.800000000001
2.5299999999999998e-8,13204.1
2.8966300000000002e-8,13154.2
3.33045e-8,13106.4
3.85361e-8,13060.099999999999
4.4873300000000004e-8,13015.5
5.2584900000000005e-8,12972.699999999999
6.201410000000001e-8,12931.8
7.35997e-8,12892.999999999998
8.80912e-8,12855.8
1.06332e-7,12820.400000000001
1.29714e-7,12786.599999999999
1.59919e-7,12754.5
1.99254e-7,12724.4
2.51966e-7,12695.7
3.23373e-7,12668.8
4.22097e-7,12643.5
5.615459999999999e-7,12620.0
7.64647e-7,12597.9
1.0645899999999999e-6,12577.6
2.70269e-6,12534.099999999999
1.5355e-5,12473.5
0.000252087,12073.0
0.00046399,11755.0
0.000471795,11778.800000000001
0.00047457700000000006,11837.800000000001
0.00047583700000000006,11915.1
0.000476718,12032.6
0.000477318,12190.8
0.00047771900000000004,12376.8
0.000478003,12586.900000000001
0.00047817100000000005,12763.7
0.000478367,13049.699999999999
0.000478519,13361.5
0.000478639,13690.7
0.000478759,14123.1
0.000478839,14486.6
0.00047891899999999996,14925.1
0.0004789990000000001,15452.6
0.00047907900000000004,16082.5
0.00047915900000000005,16825.600000000002
0.00047924,17687.8
0.00047932,18666.0
0.0004794,19745.1
0.00047964000000000004,23212.899999999998
0.00047972000000000005,24250.0
0.000479784,24955.5
0.000479856,25570.300000000003
0.000479916,25909.5
0.000479965,26057.600000000002
0.00048,26088.399999999998
0.00048006000000000004,25996.100000000002
0.00048012,25724.6
0.00048018000000000003,25287.1
0.00048023900000000003,24715.1
0.000480317,23785.9
0.000480434,22157.9
0.00048059200000000006,19858.7
0.0004806720000000001,18771.899999999998
0.00048075200000000003,17783.6
0.000480833,16910.1
0.00048091299999999997,16155.4
0.000480993,15514.699999999999
0.00048107300000000005,14977.3
0.00048115300000000006,14530.099999999999
0.000481233,14159.2
0.000481353,13717.900000000001
0.000481473,13381.9
0.00048162599999999997,13062.0
0.000481779,12826.2
0.000481966,12613.9
0.000482221,12410.8
0.000482562,12232.300000000001
0.00048296200000000003,12098.0
0.000483362,12009.7
0.0004841630000000001,11903.999999999998
0.00048540300000000003,11823.2
0.000488405,11751.5
0.000499212,11696.7
0.000907072,11011.7
0.0010850500000000002,10646.9
0.00121037,10320.800000000001
0.00131408,9987.199999999999
0.0013161400000000001,9986.02
0.00132128,10002.800000000001
0.00132416,10047.1
0.0013262100000000002,10131.2
0.00132724,10216.0
0.00132794,10308.800000000001
0.00132864,10454.2
0.00132905,10582.1
0.0013294600000000002,10762.7
0.0013297699999999999,10952.699999999999
0.00133008,11217.3
0.00133029,11457.3
0.00133047,11738.599999999999
0.00133061,12006.4
0.0013307500000000001,12340.9
0.00133089,12764.800000000001
0.00133098,13111.900000000001
0.0013310800000000001,13558.699999999999
0.0013311599999999999,13984.0
0.00133124,14478.800000000001
0.00133132,15054.4
0.0013314,15722.5
0.00133145,16225.300000000001
0.00133154,17098.3
0.0013316200000000002,18102.3
0.0013317000000000001,19248.0
0.00133178,20542.4
0.00133186,21988.8
0.00133195,23583.6
0.00133203,25316.800000000003
0.00133215,28131.6
0.00133244,35074.200000000004
0.00133256,37628.3
0.0013326400000000002,39309.1
0.00133273,40683.9
0.00133281,41729.3
0.00133289,42421.100000000006
0.00133297,42724.0
0.001333,42746.2
0.0013330599999999998,42647.399999999994
0.0013331200000000001,42354.1
0.0013331900000000002,41769.2
0.00133325,41065.7
0.00133334,39701.9
0.0013334299999999998,37962.0
0.00133353,35827.8
0.0013336600000000002,32712.500000000004
0.00133386,27742.6
0.00133395,25860.4
0.0013340300000000002,24089.9
0.00133411,22452.6
0.00133419,20961.5
0.00133427,19621.6
0.00133436,18417.8
0.00133442,17602.7
0.00133448,16868.6
0.00133457,16006.199999999999
0.00133465,15264.9
0.00133472,14724.2
0.0013348,14250.7
0.0013349,13649.3
0.00133501,13156.699999999999
0.00133511,12751.9
0.00133522,12417.400000000001
0.00133538,12028.8
0.0013355300000000001,11725.4
0.00133573,11414.599999999999
0.0013359399999999999,11178.300000000001
0.00133625,10916.300000000001
0.0013364499999999999,10783.8
0.00133687,10584.800000000001
0.0013373900000000001,10412.5
0.0013379099999999999,10294.4
0.0013386700000000001,10179.400000000001
0.00133993,10064.5
0.00134143,9986.62
0.00134369,9920.94
0.00134986,9838.1
0.00138399,9630.88
0.00143145,9327.949999999999
0.0014675,9034.119999999999
0.0014959,8741.210000000001
0.00151994,8431.32
0.00153742,8155.08
0.00155053,7910.03
0.00156364,7622.68
0.00157347,7372.200000000001
0.00158331,7083.74
0.00159314,6747.969999999999
0.0015996900000000002,6491.97
0.00160625,6204.96
0.0016128,5881.42
0.00161772,5611.0
0.00162264,5313.39
0.0016281000000000002,4947.339999999999
0.0016321900000000002,4645.75
0.00163629,4320.22
0.00164039,3971.5600000000004
0.00164722,3353.9900000000002
0.00165124,2993.96
0.00165319,2834.39
0.00165449,2738.39
0.0016557,2659.94
0.0016568099999999999,2599.8
0.00165793,2555.21
0.0016587700000000002,2534.52
0.0016596,2527.2999999999997
0.0016603000000000002,2533.9900000000002
0.0016610000000000001,2554.25
0.0016617,2590.2
0.0016624,2644.6800000000003
0.0016629799999999999,2705.42
0.0016635500000000002,2782.85
0.00166412,2879.34
0.0016647,2997.68
0.00166522,3126.2400000000002
0.00166562,3243.9900000000002
0.00166603,3377.75
0.00166644,3529.2
0.0016668400000000002,3694.2400000000002
0.0016672400000000002,3879.54
0.0016676500000000001,4094.8599999999997
0.00166808,4354.0599999999995
0.00166841,4570.62
0.00166879,4849.84
0.0016692,5184.17
0.00166961,5559.12
0.0016700200000000001,5979.66
0.00167043,6451.43
0.0016707,6797.570000000001
0.0016709799999999999,7171.54
0.00167125,7575.69
0.00167152,8012.679999999999
0.0016718,8485.369999999999
0.00167213,9104.279999999999
0.00167245,9785.24
0.00167278,10535.1
0.0016731100000000002,11361.699999999999
0.00167344,12274.0
0.00167375,13237.9
0.0016740600000000002,14275.599999999999
0.0016743600000000002,15418.0
0.00167467,16677.7
0.00167498,18068.6
0.0016752800000000001,19550.0
0.00167555,21059.3
0.0016758200000000002,22716.2
0.0016761,24537.8
0.00167637,26543.800000000003
0.00167665,28756.499999999996
0.00167693,31240.399999999998
0.0016772100000000002,33994.8
0.00167739,35999.1
0.0016775800000000001,38151.799999999996
0.00167776,40466.4
0.00167795,42957.9
0.00167813,45642.8
0.00167836,49254.7
0.00167859,53229.3
0.00167882,57612.0
0.00167905,62454.5
0.0016792800000000002,67816.7
0.0016795100000000002,73767.3
0.00167966,78100.1
0.00167982,82756.6
0.00167997,87765.6
0.00168012,93160.7
0.00168028,98977.1
0.0016804300000000001,105256.0
0.00168058,112040.0
0.0016807600000000001,120754.99999999999
0.0016809400000000001,130333.00000000001
0.00168112,140877.0
0.0016813000000000002,152505.0
0.0016814800000000002,165347.0
0.00168165,178648.0
0.00168182,192793.0
0.00168198,208327.00000000003
0.00168214,225401.0
0.00168231,244173.99999999997
0.00168247,264824.0
0.00168264,287532.0
0.0016828000000000001,312492.0
0.00168296,339893.0
0.0016831300000000001,369922.0
0.00168329,402743.0
0.00168344,434787.00000000006
0.00168359,469265.00000000006
0.00168373,506196.99999999994
0.00168393,559171.0
0.00168413,618547.0
0.0016843600000000002,689243.0
0.00168488,855009.0000000001
0.00168512,927887.0
0.0016853,979505.0
0.00168549,1.02461e6
0.00168567,1.06144e6
0.0016858,1.08063e6
0.00168592,1.09514e6
0.00168608,1.1065e6
0.00168623,1.10964e6
0.0016863800000000001,1.10515e6
0.00168654,1.09301e6
0.00168669,1.07383e6
0.00168685,1.0483899999999999e6
0.0016870099999999999,1.0176400000000001e6
0.00168724,962786.0
0.00168748,901618.0
0.00168811,731457.0
0.0016883500000000001,672043.0
0.00168858,617819.0
0.00168881,567839.0
0.0016890400000000002,522251.0
0.00168927,480966.0
0.0016895,443757.0
0.00168967,417948.0
0.0016898500000000001,394174.0
0.0016900200000000002,372279.0
0.0016902,352112.0
0.00169037,333526.0
0.00169054,316385.0
0.00169072,300561.0
0.00169089,285937.0
0.00169111,269180.0
0.00169133,253941.00000000003
0.0016915500000000002,240054.0
0.00169177,227371.0
0.0016919900000000002,215761.0
0.00169221,205111.0
0.00169242,195321.0
0.00169275,182057.0
0.00169308,170276.0
0.00169341,159766.0
0.00169373,150351.0
0.0016940599999999998,141884.0
0.00169439,134243.0
0.0016947300000000002,127128.0
0.0016950700000000001,120679.0
0.0016954000000000001,114809.99999999999
0.00169574,109452.0
0.00169625,102247.0
0.00169675,95900.70000000001
0.00169709,92080.3
0.00169761,86688.7
0.0016981400000000001,81888.0
0.00169867,77590.3
0.00169919,73726.4
0.0016997199999999998,70238.3
0.00170024,67077.2
0.00170103,62859.99999999999
0.00170184,59083.8
0.0017026600000000002,55730.8
0.00170348,52773.1
0.0017043,50148.0
0.00170512,47805.0
0.00170597,45636.4
0.00170687,43569.1
0.00170777,41714.700000000004
0.00170867,40043.8
0.00170987,38062.0
0.00171107,36320.4
0.00171225,34778.7
0.00171344,33401.200000000004
0.00171522,31590.699999999997
0.0017170700000000002,29981.2
0.00171891,28588.399999999998
0.00172079,27352.1
0.00172274,26229.9
0.00172468,25240.5
0.0017266999999999998,24334.1
0.0017294300000000001,23262.6
0.00173216,22338.8
0.00173489,21534.6
0.00173762,20828.600000000002
0.00174172,19917.899999999998
0.0017458100000000002,19150.899999999998
0.00175046,18412.2
0.0017553700000000002,17750.1
0.0017602899999999999,17185.399999999998
0.0017668500000000001,16550.0
0.0017734,16018.4
0.00177995,15566.800000000001
0.00178979,15003.4
0.00179962,14542.5
0.00181273,14043.300000000001
0.00182584,13638.699999999999
0.00184332,13203.199999999999
0.00186517,12773.4
0.00189139,12368.2
0.00192198,11992.9
0.00196131,11604.6
0.00202112,11122.5
0.00215088,10183.4
0.00219875,9782.550000000001
0.00223466,9426.57
0.00226458,9069.84
0.00228851,8726.73
0.00230946,8366.25
0.00232442,8063.43
0.00233938,7709.27
0.00235134,7378.93
0.0023603200000000004,7096.93
0.0023693,6779.099999999999
0.00237827,6418.03
0.00238426,6148.73
0.00239024,5852.71
0.00239622,5526.0199999999995
0.00240221,5164.6
0.0024067,4867.04
0.0024111799999999997,4544.46
0.00241567,4194.5
0.00242016,3815.03
0.0024246500000000004,3404.67
0.00242839,3039.26
0.00243213,2654.65
0.0024401799999999997,1794.68
0.00244221,1585.3999999999999
0.0024438399999999996,1427.44
0.0024448599999999997,1334.43
0.00244579,1255.98
0.00244671,1184.39
0.00244764,1121.1599999999999
0.00244826,1084.55
0.00244887,1053.1200000000001
0.00244943,1030.01
0.00244991,1013.9899999999999
0.0024504,1002.5
0.0024508800000000003,996.025
0.0024512,994.758
0.00245152,996.0240000000001
0.00245201,1003.25
0.0024524,1014.16
0.0024528500000000003,1032.71
0.00245322,1053.55
0.0024536500000000004,1084.14
0.00245403,1116.97
0.0024544199999999997,1158.22
0.0024548100000000004,1207.02
0.0024552000000000003,1264.01
0.0024555799999999997,1326.56
0.00245595,1397.87
0.00245633,1478.66
0.00245668,1564.92
0.00245702,1655.88
0.00245735,1756.53
0.00245769,1867.6200000000001
0.0024580500000000003,1997.0900000000001
0.00245842,2148.0800000000004
0.00245879,2315.44
0.00245917,2500.6499999999996
0.00245954,2705.32
0.00245992,2931.2299999999996
0.00246029,3180.35
0.00246057,3383.71
0.00246085,3602.3399999999997
0.0024611299999999997,3837.34
0.00246141,4089.8599999999997
0.00246169,4361.18
0.00246197,4652.67
0.00246225,4965.849999999999
0.00246257,5349.070000000001
0.00246291,5790.36
0.00246324,6271.45
0.00246358,6796.070000000001
0.00246392,7368.21
0.00246425,7992.47
0.00246459,8673.970000000001
0.0024649299999999997,9418.55
0.00246526,10232.699999999999
0.0024655999999999996,11123.6
0.00246594,12099.4
0.00246626,13132.0
0.0024665900000000003,14261.6
0.00246691,15498.400000000001
0.00246724,16854.2
0.00246756,18342.1
0.00246787,19859.2
0.00246816,21453.5
0.00246845,23192.300000000003
0.00246874,25091.5
0.00246903,27168.100000000002
0.00246933,29503.2
0.0024696500000000003,32204.8
0.0024698600000000004,34163.4
0.0024700700000000004,36260.1
0.00247028,38506.8
0.00247049,40916.0
0.0024706899999999998,43502.1
0.0024709,46280.299999999996
0.00247117,50163.0
0.00247144,54432.600000000006
0.00247171,59135.7
0.00247198,64325.1
0.00247225,70061.3
0.0024725100000000002,76043.2
0.00247275,82438.0
0.002473,89482.5
0.00247325,97256.8
0.00247349,105850.0
0.0024737300000000004,115060.0
0.00247396,124574.0
0.0024741800000000003,135036.0
0.0024744100000000002,146554.0
0.00247463,159246.0
0.0024748500000000002,173241.0
0.0024750600000000003,187072.0
0.00247526,202185.00000000003
0.00247546,218702.0
0.00247566,236746.0
0.00247586,256446.0
0.00247607,277929.0
0.00247627,301316.0
0.00247647,326716.0
0.00247667,354221.0
0.00247687,383886.0
0.00247708,415728.0
0.00247728,449701.00000000006
0.00247755,498100.0
0.00247782,549542.0
0.00247869,724147.0
0.00247895,772678.0
0.0024792,816628.0
0.00247946,854177.0
0.0024796700000000002,878819.0
0.0024798800000000003,897463.0
0.0024800900000000003,909612.0000000001
0.00248031,915076.0
0.00248036,915304.0000000001
0.00248057,912027.9999999999
0.00248074,904643.0000000001
0.0024809100000000002,893318.0
0.00248117,869740.0
0.00248142,839545.0
0.00248168,804311.0
0.00248209,739678.0
0.00248283,621771.0
0.00248314,573849.0
0.0024834600000000003,528927.0
0.0024837699999999997,487441.0
0.00248408,449533.0
0.0024844,415146.0
0.0024847100000000002,384099.0
0.00248503,356143.0
0.0024853,334428.0
0.0024855700000000003,314602.0
0.00248583,296492.0
0.0024861,279936.0
0.00248637,264782.0
0.00248664,250893.0
0.00248691,238143.0
0.00248718,226420.99999999997
0.0024874800000000002,214478.0
0.0024877799999999998,203555.99999999997
0.00248808,193545.0
0.0024883799999999997,184351.0
0.00248883,171908.0
0.00248928,160870.0
0.0024897300000000003,150956.0
0.00249019,141955.0
0.00249065,133888.0
0.00249111,126630.0
0.00249157,120076.99999999999
0.00249203,114138.0
0.00249254,108110.0
0.00249306,102665.0
0.00249358,97727.90000000001
0.00249409,93236.79999999999
0.00249487,87225.40000000001
0.00249564,81954.49999999999
0.0024961600000000003,78789.1
0.0024969000000000002,74624.3
0.00249765,70895.0
0.0024984,67541.2
0.0024991500000000003,64512.4
0.0024998999999999998,61766.0
0.00250102,58099.0
0.00250214,54890.0
0.00250326,52061.700000000004
0.00250438,49553.1
0.0025055100000000003,47314.99999999999
0.00250663,45307.6
0.00250812,42934.4
0.00250977,40658.0
0.0025114200000000003,38670.4
0.0025130599999999997,36925.1
0.00251471,35373.8
0.00251632,34019.4
0.0025187300000000003,32240.1
0.00252114,30707.8
0.00252366,29317.600000000002
0.00252619,28105.5
0.00252937,26786.2
0.0025323600000000004,25712.8
0.0025353500000000005,24773.3
0.00253834,23944.7
0.00254283,22870.6
0.00254732,21958.8
0.0025518100000000003,21175.600000000002
0.00255779,20288.7
0.00256378,19543.9
0.00256976,18907.5
0.0025757400000000004,18358.399999999998
0.00258472,17663.0
0.0025937,17086.3
0.00260267,16600.1
0.00261464,16059.2
0.0026296,15511.3
0.00264456,15067.5
0.0026625100000000003,14634.6
0.00268203,14257.2
0.00269508,14070.400000000001
0.00269771,14058.699999999999
0.00270042,14104.8
0.00270172,14208.0
0.00270248,14361.2
0.00270289,14521.800000000001
0.0027031900000000003,14721.1
0.0027033900000000004,14917.3
0.00270359,15188.6
0.0027038,15563.0
0.00270396,15969.1
0.00270409,16360.9
0.00270422,16826.5
0.00270435,17371.8
0.0027045,18083.6
0.0027046600000000002,18992.5
0.0027048199999999997,20008.7
0.0027053,23290.7
0.00270547,24257.6
0.00270559,24867.3
0.00270571,25346.8
0.0027058399999999997,25697.0
0.00270594,25825.5
0.002706,25844.999999999996
0.00270611,25777.100000000002
0.0027062400000000004,25511.8
0.00270637,25060.3
0.00270645,24668.0
0.00270661,23780.0
0.00270678,22745.600000000002
0.00270718,19983.9
0.00270734,18963.8
0.00270748,18199.0
0.0027076400000000003,17399.899999999998
