E(MeV),xs(mb)
1.0e-11,3.55181e8
1.03223e-11,3.49593e8
1.06549e-11,3.44094e8
1.0998399999999998e-11,3.3868e8
1.13527e-11,3.33354e8
1.1718599999999999e-11,3.28109e8
1.2096199999999998e-11,3.22948e8
1.24861e-11,3.17867e8
1.2888399999999999e-11,3.12868e8
1.3303799999999998e-11,3.07945e8
1.37325e-11,3.03102e8
1.41751e-11,2.98333e8
1.4631799999999997e-11,2.93641e8
1.51034e-11,2.89022e8
1.5590099999999998e-11,2.84476e8
1.6092599999999998e-11,2.80001e8
1.66111e-11,2.75597e8
1.71465e-11,2.71261e8
1.7699e-11,2.66995e8
1.8269399999999998e-11,2.6279499999999997e8
1.88581e-11,2.58662e8
1.94659e-11,2.5459299999999997e8
2.00931e-11,2.50589e8
2.0740699999999998e-11,2.4664700000000003e8
2.1408999999999998e-11,2.42769e8
2.2099099999999997e-11,2.3895e8
2.28111e-11,2.3519199999999997e8
2.3546399999999998e-11,2.31492e8
2.4305099999999997e-11,2.27852e8
2.50884e-11,2.24268e8
2.5896799999999997e-11,2.20742e8
2.67315e-11,2.1726899999999997e8
2.75928e-11,2.1385299999999997e8
2.8482199999999998e-11,2.1048900000000003e8
2.93999e-11,2.0718e8
3.0347499999999995e-11,2.0392100000000003e8
3.13253e-11,2.0071500000000003e8
3.2335e-11,1.97558e8
3.33769e-11,1.94452e8
3.44526e-11,1.91393e8
3.55627e-11,1.88384e8
3.67089e-11,1.85422e8
3.7891799999999997e-11,1.82506e8
3.9113e-11,1.79636e8
4.0373400000000003e-11,1.76812e8
4.1674599999999996e-11,1.74032e8
4.3017399999999996e-11,1.71296e8
4.440389999999999e-11,1.68602e8
4.58347e-11,1.65952e8
4.7311899999999994e-11,1.63342e8
4.883639999999999e-11,1.60775e8
5.0410399999999995e-11,1.58247e8
5.20348e-11,1.55759e8
5.37119e-11,1.5331e8
5.54426e-11,1.50901e8
5.7229499999999995e-11,1.48528e8
5.907359999999999e-11,1.46194e8
6.09775e-11,1.43896e8
6.29424e-11,1.41634e8
6.497099999999999e-11,1.39408e8
6.70645e-11,1.37217e8
6.9226e-11,1.3506e8
7.145659999999999e-11,1.32938e8
7.37596e-11,1.30849e8
7.61364e-11,1.28793e8
7.85902e-11,1.2676799999999999e8
8.11227e-11,1.24777e8
8.37372e-11,1.2281599999999999e8
8.643549999999999e-11,1.20886e8
8.922119999999998e-11,1.18987e8
9.209619999999999e-11,1.1711800000000001e8
9.506439999999999e-11,1.1527799999999999e8
9.81277e-11,1.13467e8
1.01291e-10,1.11684e8
1.04554e-10,1.0993e8
1.07924e-10,1.08203e8
1.11402e-10,1.06504e8
1.1499200000000001e-10,1.0483100000000001e8
1.1869700000000001e-10,1.03185e8
1.22523e-10,1.0156400000000001e8
1.26471e-10,9.997e7
1.30547e-10,9.84e7
1.34754e-10,9.68554e7
1.3909700000000002e-10,9.53346e7
1.43579e-10,9.38383e7
1.48207e-10,9.2365e7
1.52982e-10,9.09155e7
1.57913e-10,8.94884e7
1.6300100000000001e-10,8.80842e7
1.68254e-10,8.67018e7
1.73676e-10,8.53416e7
1.79274e-10,8.40024e7
1.8505000000000002e-10,8.26848e7
1.91014e-10,8.13875e7
1.97169e-10,8.01111e7
2.03524e-10,7.88545e7
2.1008200000000003e-10,7.7618e7
2.16853e-10,7.64008e7
2.2384e-10,7.52031e7
2.31055e-10,7.40239e7
2.385e-10,7.28637e7
2.46187e-10,7.17215e7
2.5412e-10,7.05977e7
2.6231e-10,6.94913e7
2.70762e-10,6.84026e7
2.7948900000000003e-10,6.73309e7
2.88494e-10,6.627640000000001e7
2.9779300000000004e-10,6.52383e7
3.07388e-10,6.42168e7
3.1729500000000004e-10,6.32112e7
3.27519e-10,6.22218e7
3.38075e-10,6.12478e7
3.4896900000000003e-10,6.028940000000001e7
3.6021600000000004e-10,5.93459e7
3.7182300000000004e-10,5.84176e7
3.83807e-10,5.75037e7
3.96174e-10,5.66045e7
4.08943e-10,5.57194e7
4.2212e-10,5.48484e7
4.3572499999999996e-10,5.3991e7
4.4976500000000005e-10,5.314739999999999e7
4.6426100000000007e-10,5.2317e7
4.79221e-10,5.14999e7
4.94666e-10,5.06956e7
5.10605e-10,4.99042e7
5.270620000000001e-10,4.91251e7
5.440450000000001e-10,4.83586e7
5.6158e-10,4.7604e7
5.796750000000001e-10,4.68616e7
5.98358e-10,4.61308e7
6.176389999999999e-10,4.54118e7
6.37545e-10,4.4704e7
6.58089e-10,4.40076e7
6.79298e-10,4.33221e7
7.01188e-10,4.26476e7
7.237860000000001e-10,4.19837e7
7.47109e-10,4.13305e7
7.71188e-10,4.06876e7
7.960380000000001e-10,4.005499999999999e7
8.21693e-10,3.94323e7
8.48171e-10,3.88197e7
8.75507e-10,3.82167e7
9.037190000000002e-10,3.76234e7
9.32845e-10,3.70395e7
9.62904e-10,3.6465e7
9.93937e-10,3.58995e7
1.0259700000000001e-9,3.53431e7
1.05903e-9,3.47956e7
1.09316e-9,3.42568e7
1.12839e-9,3.37266e7
1.16475e-9,3.3205e7
1.2022900000000002e-9,3.26916e7
1.2410300000000002e-9,3.2186499999999996e7
1.28103e-9,3.16893e7
1.3223100000000002e-9,3.12003e7
1.36492e-9,3.0719e7
1.4089000000000002e-9,3.02455e7
1.4543100000000001e-9,2.97795e7
1.5011699999999999e-9,2.9321e7
1.5495600000000002e-9,2.88699e7
1.5994900000000002e-9,2.8426e7
1.6510400000000001e-9,2.79893e7
1.7042400000000001e-9,2.75596e7
1.75917e-9,2.71368e7
1.81585e-9,2.67209e7
1.87438e-9,2.63116e7
1.9347700000000003e-9,2.5909e7
1.99713e-9,2.55129e7
2.06148e-9,2.51232e7
2.1279200000000002e-9,2.47398e7
2.19649e-9,2.43626e7
2.26728e-9,2.39915e7
2.3403400000000002e-9,2.36265e7
2.4157700000000002e-9,2.32673e7
2.49362e-9,2.29141e7
2.5739800000000002e-9,2.25666e7
2.65692e-9,2.22248e7
2.7425500000000002e-9,2.18885e7
2.8309300000000003e-9,2.15578e7
2.92217e-9,2.12324e7
3.01633e-9,2.09124e7
3.11354e-9,2.05977e7
3.21387e-9,2.02881e7
3.3174500000000004e-9,1.99837e7
3.42435e-9,1.96842e7
3.53471e-9,1.93897e7
3.6486100000000003e-9,1.91002e7
3.7662000000000005e-9,1.88153e7
3.88757e-9,1.85353e7
4.01286e-9,1.82599e7
4.14217e-9,1.79891e7
4.2756600000000005e-9,1.77228e7
4.41344e-9,1.7461e7
4.55568e-9,1.72036e7
4.7024800000000005e-9,1.69505e7
4.85404e-9,1.67017e7
5.01045e-9,1.64571e7
5.17193e-9,1.62167e7
5.338590000000001e-9,1.59803e7
5.510650000000001e-9,1.5748e7
5.688220000000001e-9,1.55197e7
5.871540000000001e-9,1.52953e7
6.06075e-9,1.50747e7
6.256080000000001e-9,1.4858e7
6.4576700000000005e-9,1.4645e7
6.665790000000001e-9,1.44358e7
6.8805900000000005e-9,1.42302e7
7.1023400000000005e-9,1.40282e7
7.33121e-9,1.3829800000000002e7
7.56748e-9,1.36348e7
7.82789e-9,1.34307e7
8.097250000000002e-9,1.32305e7
8.375890000000001e-9,1.30341e7
8.664110000000001e-9,1.28416e7
8.96225e-9,1.2652699999999998e7
9.27066e-9,1.24676e7
9.589670000000001e-9,1.2286e7
9.919660000000001e-9,1.21081e7
1.0261e-8,1.19337e7
1.06141e-8,1.17629e7
1.0979300000000002e-8,1.15954e7
1.1357200000000001e-8,1.14314e7
1.1748e-8,1.12708e7
1.21522e-8,1.11135e7
1.25704e-8,1.09595e7
1.3003e-8,1.08087e7
1.34504e-8,1.06612e7
1.39133e-8,1.05168e7
1.4392e-8,1.03756e7
1.4887300000000001e-8,1.02376e7
1.53996e-8,1.01026e7
1.59295e-8,9.97073e6
1.64776e-8,9.84189e6
1.70447e-8,9.71607e6
1.7631200000000002e-8,9.59326e6
1.8237900000000002e-8,9.47344e6
1.88655e-8,9.35658e6
1.95147e-8,9.24267e6
2.01862e-8,9.13171e6
2.0880800000000003e-8,9.02366e6
2.1599300000000003e-8,8.91852e6
2.23426e-8,8.81628e6
2.31114e-8,8.71693e6
2.39573e-8,8.61454e6
2.4834200000000003e-8,8.51537e6
2.52522e-8,8.47043e6
2.5299999999999998e-8,8.46539e6
2.6226099999999998e-8,8.37116e6
2.71859e-8,8.28021e6
2.8181e-8,8.19252e6
2.9212400000000002e-8,8.108140000000001e6
3.0281600000000004e-8,8.02707e6
3.13899e-8,7.94935e6
3.2538900000000006e-8,7.875e6
3.37297e-8,7.80406e6
3.4964300000000004e-8,7.73658e6
3.6244000000000003e-8,7.67261e6
3.7570600000000004e-8,7.61219e6
3.89456e-8,7.55541e6
4.03712e-8,7.50234e6
4.1848700000000003e-8,7.45305e6
4.33805e-8,7.40765e6
4.4968199999999994e-8,7.36623e6
4.66141e-8,7.32889e6
4.8320100000000004e-8,7.29576e6
5.008880000000001e-8,7.26699e6
5.1922e-8,7.24274e6
5.38225e-8,7.22318e6
5.57923e-8,7.20854e6
5.78345e-8,7.19905e6
5.995110000000001e-8,7.19495e6
6.04603e-8,7.19481e6
6.262550000000001e-8,7.19766e6
6.478060000000001e-8,7.20589e6
6.70097e-8,7.21981e6
6.93156e-8,7.23974e6
7.17008e-8,7.26606e6
7.40113e-8,7.29691e6
7.63966e-8,7.33415e6
7.88584e-8,7.37819e6
8.13999e-8,7.42953e6
8.38456e-8,7.48451e6
8.636480000000001e-8,7.54679e6
8.87716e-8,7.61166e6
9.12459e-8,7.6838e6
9.378869999999999e-8,7.76374e6
9.6199e-8,7.84499e6
9.86712e-8,7.93394e6
1.01207e-7,8.031180000000001e6
1.0358899999999999e-7,8.128170000000001e6
1.06026e-7,8.2332e6
1.08522e-7,8.34694e6
1.1084099999999998e-7,8.45844e6
1.13209e-7,8.57826e6
1.15629e-7,8.70702e6
1.1785e-7,8.83111e6
1.20115e-7,8.96358e6
1.22422e-7,9.105e6
1.24774e-7,9.25611e6
1.26903e-7,9.39911e6
1.29068e-7,9.55089e6
1.3126999999999998e-7,9.71208e6
1.33509e-7,9.88337e6
1.355e-7,1.00421e7
1.37521e-7,1.02097e7
1.39571e-7,1.03868e7
1.41653e-7,1.0573999999999998e7
1.43765e-7,1.0772e7
1.4559999999999998e-7,1.0951e7
1.47459e-7,1.1138999999999998e7
1.49342e-7,1.13368e7
1.5124899999999998e-7,1.15448e7
1.5318e-7,1.17638e7
1.55136e-7,1.1994499999999998e7
1.5678499999999998e-7,1.21963e7
1.58451e-7,1.2407300000000002e7
1.6013599999999997e-7,1.26282e7
1.61837e-7,1.28593e7
1.63558e-7,1.31016e7
1.65296e-7,1.33554e7
1.67053e-7,1.3621700000000002e7
1.6882799999999998e-7,1.39012e7
1.7062299999999998e-7,1.41949e7
1.72072e-7,1.44407e7
1.73534e-7,1.46966e7
1.75008e-7,1.4963200000000002e7
1.76494e-7,1.52411e7
1.77994e-7,1.5531e7
1.79505e-7,1.5833600000000002e7
1.8103e-7,1.6149500000000002e7
1.82568e-7,1.64796e7
1.84119e-7,1.68248e7
1.8568199999999998e-7,1.71859e7
1.86864e-7,1.74678e7
1.88053e-7,1.77598e7
1.89249e-7,1.8062e7
1.90454e-7,1.83754e7
1.91666e-7,1.87001e7
1.92886e-7,1.90371e7
1.9411299999999999e-7,1.93865e7
1.9534899999999998e-7,1.97495e7
1.96591e-7,2.01261e7
1.9784299999999998e-7,2.05178e7
1.9910099999999998e-7,2.09246e7
2.00369e-7,2.1347999999999996e7
2.0164399999999998e-7,2.17883e7
2.0292699999999997e-7,2.2247e7
2.04218e-7,2.27245e7
2.05518e-7,2.32225e7
2.06826e-7,2.3741500000000004e7
2.0814199999999999e-7,2.42833e7
2.09466e-7,2.48486e7
2.108e-7,2.54395e7
2.11693e-7,2.58481e7
2.1259e-7,2.6269e7
2.13491e-7,2.67028e7
2.1439599999999998e-7,2.7149899999999996e7
2.1530499999999998e-7,2.76109e7
2.16217e-7,2.80864e7
2.1713300000000002e-7,2.85769e7
2.18054e-7,2.90831e7
2.1897799999999996e-7,2.96056e7
2.1990599999999996e-7,3.01452e7
2.2083799999999998e-7,3.07025e7
2.2177399999999998e-7,3.12784e7
2.22714e-7,3.18735e7
2.2365699999999998e-7,3.2488800000000004e7
2.2460499999999997e-7,3.31251e7
2.2555699999999999e-7,3.37834e7
2.26513e-7,3.44646e7
2.27473e-7,3.51697e7
2.28437e-7,3.58998e7
2.2940499999999998e-7,3.66561e7
2.30377e-7,3.74397e7
2.31354e-7,3.82518e7
2.32334e-7,3.90938e7
2.33319e-7,3.9967e7
2.3430799999999998e-7,4.08729e7
2.3530099999999997e-7,4.18129e7
2.3629799999999996e-7,4.27886e7
2.37299e-7,4.38016e7
2.3805299999999997e-7,4.45868e7
2.38809e-7,4.539450000000001e7
2.39568e-7,4.62265e7
2.40329e-7,4.708249999999999e7
2.41092e-7,4.79633e7
2.4185799999999997e-7,4.88698e7
2.42627e-7,4.98041e7
2.4339799999999997e-7,5.076590000000001e7
2.4417099999999997e-7,5.17559e7
2.4494600000000003e-7,5.27752e7
2.45725e-7,5.38261e7
2.46505e-7,5.49083e7
2.47288e-7,5.60225e7
2.48073e-7,5.71699e7
2.4886199999999997e-7,5.83531e7
2.49653e-7,5.957150000000001e7
2.5044599999999997e-7,6.08262e7
2.51241e-7,6.2118e7
2.52039e-7,6.345e7
2.5284e-7,6.48212e7
2.53643e-7,6.62328e7
2.54449e-7,6.76855e7
2.5525699999999994e-7,6.91826e7
2.56069e-7,7.07228e7
2.56882e-7,7.2307e7
2.57697e-7,7.39359e7
2.58517e-7,7.56126e7
2.59338e-7,7.73355e7
2.6016199999999997e-7,7.91051e7
2.60988e-7,8.09217e7
2.61817e-7,8.27882e7
2.62649e-7,8.47024e7
2.63483e-7,8.6664e7
2.6432000000000003e-7,8.867279999999999e7
2.6516000000000003e-7,9.07312e7
2.66003e-7,9.28359e7
2.6713e-7,9.57128e7
2.68262e-7,9.86684e7
2.69399e-7,1.01699e8
2.70541e-7,1.0479799999999999e8
2.71687e-7,1.07961e8
2.73416e-7,1.12806e8
2.76322e-7,1.2107300000000001e8
2.78669e-7,1.27742e8
2.80442e-7,1.32694e8
2.81631e-7,1.3594e8
2.82824e-7,1.39116e8
2.83723e-7,1.41442e8
2.84625e-7,1.43707e8
2.85529e-7,1.45901e8
2.86435e-7,1.48015e8
2.87346e-7,1.50042e8
2.88259e-7,1.51968e8
2.89174e-7,1.53784e8
2.9009200000000003e-7,1.55481e8
2.91015e-7,1.57051e8
2.91631e-7,1.5802e8
2.92248e-7,1.58926e8
2.9286599999999994e-7,1.59765e8
2.93486e-7,1.60535e8
2.94108e-7,1.61233e8
2.9473e-7,1.61858e8
2.9535399999999996e-7,1.62408e8
2.9597899999999995e-7,1.6288e8
2.96606e-7,1.63272e8
2.9723399999999997e-7,1.63584e8
2.9786299999999997e-7,1.63814e8
2.98493e-7,1.6396e8
2.9909799999999997e-7,1.64021e8
2.99388e-7,1.64023e8
3.00198e-7,1.63933e8
3.00888e-7,1.63746e8
3.0154499999999996e-7,1.63474e8
3.02184e-7,1.63123e8
3.02823e-7,1.62687e8
3.0346499999999997e-7,1.62165e8
3.0410699999999996e-7,1.6156e8
3.04751e-7,1.6087e8
3.0539599999999996e-7,1.60098e8
3.06043e-7,1.59245e8
3.0669e-7,1.58314e8
3.0734e-7,1.57303e8
3.0799e-7,1.56219e8
3.08642e-7,1.55059e8
3.09295e-7,1.53831e8
3.0995e-7,1.52531e8
3.1060599999999994e-7,1.51168e8
3.11593e-7,1.49003e8
3.12583e-7,1.46707e8
3.13576e-7,1.44289e8
3.1457099999999997e-7,1.41761e8
3.15571e-7,1.39131e8
3.16574e-7,1.36412e8
3.17243e-7,1.34558e8
3.18588e-7,1.3075699999999999e8
3.19938e-7,1.26858e8
3.21975e-7,1.2088000000000001e8
3.25396e-7,1.10784e8
3.26775e-7,1.0676000000000001e8
3.2816e-7,1.0277400000000001e8
3.29551e-7,9.8841e7
3.3059799999999995e-7,9.59342e7
3.3164899999999995e-7,9.30723e7
3.32702e-7,9.026020000000001e7
3.3375899999999996e-7,8.75019e7
3.34819e-7,8.479710000000001e7
3.35883e-7,8.21528e7
3.3694999999999996e-7,7.95714e7
3.37663e-7,7.78857e7
3.38378e-7,7.62288e7
3.39094e-7,7.46013e7
3.3981199999999997e-7,7.30035e7
3.4053099999999997e-7,7.14354e7
3.41252e-7,6.98975e7
3.41975e-7,6.83896e7
3.42699e-7,6.69119e7
3.43424e-7,6.54642e7
3.44151e-7,6.40466e7
3.44879e-7,6.26589e7
3.45609e-7,6.13009e7
3.46341e-7,5.99723e7
3.47074e-7,5.86729e7
3.4780899999999996e-7,5.74024e7
3.48545e-7,5.61604e7
3.49283e-7,5.49467e7
3.50022e-7,5.37607e7
3.50763e-7,5.26021e7
3.51506e-7,5.14705e7
3.5225e-7,5.036539999999999e7
3.5299499999999997e-7,4.92864e7
3.53742e-7,4.82329e7
3.5449099999999997e-7,4.72046e7
3.55242e-7,4.62009e7
3.55994e-7,4.52213e7
3.56747e-7,4.42653e7
3.5750199999999997e-7,4.33324e7
3.58259e-7,4.24222e7
3.59017e-7,4.153400000000001e7
3.59777e-7,4.06675e7
3.60539e-7,3.98221e7
3.61302e-7,3.89974e7
3.62067e-7,3.81928e7
3.62833e-7,3.74078e7
3.6360100000000003e-7,3.6642e7
3.64371e-7,3.58949e7
3.6514199999999995e-7,3.51661e7
3.6591499999999995e-7,3.4455e7
3.6669e-7,3.37613e7
3.67466e-7,3.30845e7
3.68244e-7,3.24241e7
3.69023e-7,3.17797e7
3.69804e-7,3.1151e7
3.70587e-7,3.05374e7
3.7137099999999994e-7,2.9938699999999996e7
3.7215799999999996e-7,2.93544e7
3.72945e-7,2.87841e7
3.73735e-7,2.82275e7
3.74526e-7,2.76842e7
3.75319e-7,2.71538e7
3.76113e-7,2.6636000000000004e7
3.76909e-7,2.61305e7
3.77707e-7,2.5637e7
3.78507e-7,2.5155e7
3.7930799999999997e-7,2.4684400000000004e7
3.80111e-7,2.42247e7
3.8091499999999997e-7,2.37758e7
3.8172199999999996e-7,2.33373e7
3.8252999999999997e-7,2.29089e7
3.83339e-7,2.24904e7
3.84151e-7,2.20815e7
3.84964e-7,2.1682e7
3.85779e-7,2.12916e7
3.86595e-7,2.0910000000000004e7
3.87414e-7,2.0537e7
3.88234e-7,2.0172500000000004e7
3.8905599999999996e-7,1.98161e7
3.8987899999999997e-7,1.94677e7
3.90704e-7,1.9127e7
3.9153199999999996e-7,1.87939e7
3.9236e-7,1.84681e7
3.9319099999999996e-7,1.81495e7
3.94023e-7,1.78378e7
3.94857e-7,1.7533e7
3.9569299999999994e-7,1.72347e7
3.96531e-7,1.69429e7
3.9736999999999996e-7,1.66574e7
3.98211e-7,1.63779e7
3.9947599999999997e-7,1.59698e7
4.00745e-7,1.55748e7
4.02018e-7,1.51922e7
4.0329499999999993e-7,1.48213e7
4.04577e-7,1.44619e7
4.05862e-7,1.41137e7
4.0715099999999996e-7,1.37763e7
4.08445e-7,1.34488e7
4.0974199999999996e-7,1.31313e7
4.1104399999999996e-7,1.28234e7
4.1234900000000004e-7,1.25248e7
4.1365999999999996e-7,1.22347e7
4.14974e-7,1.19532e7
4.16292e-7,1.16801e7
4.17614e-7,1.1415e7
4.1894099999999994e-7,1.11572e7
4.20272e-7,1.0907e7
4.21607e-7,1.06639e7
4.22946e-7,1.04278e7
4.2428999999999994e-7,1.0198100000000002e7
4.25638e-7,9.97486e6
4.2699e-7,9.75791e6
4.2834599999999994e-7,9.54702e6
4.29708e-7,9.3417e6
4.3107300000000004e-7,9.14203e6
4.32442e-7,8.94784e6
4.3381499999999997e-7,8.75894e6
4.3519399999999997e-7,8.5749e6
4.3657700000000003e-7,8.39582e6
4.37964e-7,8.22152e6
4.39354e-7,8.05186e6
4.40751e-7,7.88646e6
4.4215099999999995e-7,7.72541e6
4.43555e-7,7.56856e6
4.4496399999999993e-7,7.41579e6
4.4637799999999995e-7,7.26676e6
4.47796e-7,7.12156e6
4.4921899999999997e-7,6.98006e6
4.50645e-7,6.84216e6
4.52077e-7,6.70755e6
4.53514e-7,6.57632e6
4.5495400000000004e-7,6.44837e6
4.56399e-7,6.32359e6
4.5785e-7,6.20172e6
4.59304e-7,6.08285e6
4.6076300000000003e-7,5.96688e6
4.6222599999999997e-7,5.85372e6
4.6369499999999997e-7,5.74314e6
4.65169e-7,5.63522e6
4.6664599999999996e-7,5.52988e6
4.68128e-7,5.42705e6
4.69616e-7,5.3265e6
4.71108e-7,5.22832e6
4.72604e-7,5.13244e6
4.74105e-7,5.03879e6
4.75612e-7,4.94718e6
4.77123e-7,4.85768e6
4.78639e-7,4.77023e6
4.80158e-7,4.68478e6
4.81684e-7,4.60115e6
4.83215e-7,4.51941e6
4.8475e-7,4.43951e6
4.86289e-7,4.36139e6
4.8835e-7,4.25984e6
4.90419e-7,4.16122e6
4.92498e-7,4.0654399999999995e6
4.94585e-7,3.9724e6
4.966809999999999e-7,3.88199e6
4.98786e-7,3.79413e6
5.009e-7,3.70873e6
5.03023e-7,3.62572e6
5.05155e-7,3.545e6
5.07295e-7,3.46649e6
5.09445e-7,3.39014e6
5.11604e-7,3.31586e6
5.137719999999999e-7,3.24359e6
5.1595e-7,3.17325e6
5.18136e-7,3.1048e6
5.20332e-7,3.03816e6
5.225369999999999e-7,2.97328e6
5.24752e-7,2.9101e6
5.26976e-7,2.84857e6
5.29209e-7,2.78864e6
5.31452e-7,2.73025e6
5.33704e-7,2.67336e6
5.359659999999999e-7,2.61792e6
5.38237e-7,2.56389e6
5.405189999999999e-7,2.51122e6
5.42809e-7,2.45988e6
5.4511e-7,2.40981e6
5.4742e-7,2.36099e6
5.497399999999999e-7,2.31338e6
5.5207e-7,2.26694e6
5.54409e-7,2.22163e6
5.567589999999999e-7,2.17742e6
5.591179999999999e-7,2.13429e6
5.61488e-7,2.09219e6
5.63868e-7,2.0511e6
5.66257e-7,2.01099e6
5.686569999999999e-7,1.97184e6
5.71067e-7,1.9336e6
5.73487e-7,1.89627e6
5.759179999999999e-7,1.85981e6
5.783579999999999e-7,1.8242e6
5.808089999999999e-7,1.78941e6
5.832709999999999e-7,1.75543e6
5.85743e-7,1.72222e6
5.88225e-7,1.68978e6
5.90718e-7,1.65807e6
5.93222e-7,1.62708e6
5.95736e-7,1.59679e6
5.982599999999999e-7,1.56718e6
6.007959999999999e-7,1.53824e6
6.033419999999999e-7,1.50993e6
6.05899e-7,1.48225e6
6.08467e-7,1.45518e6
6.11045e-7,1.42871e6
6.13635e-7,1.40281e6
6.16236e-7,1.37748e6
6.188469999999999e-7,1.3527e6
6.214699999999999e-7,1.32845e6
6.24104e-7,1.30472e6
6.267489999999999e-7,1.28149e6
6.29405e-7,1.25876e6
6.320719999999999e-7,1.23652e6
6.34751e-7,1.21474e6
6.37441e-7,1.19342e6
6.40143e-7,1.17255e6
6.42855e-7,1.15211e6
6.4558e-7,1.1321e6
6.483159999999999e-7,1.11251e6
6.510629999999999e-7,1.09331e6
6.53823e-7,1.07452e6
6.565929999999999e-7,1.0561e6
6.59376e-7,1.03807e6
6.62171e-7,1.0204e6
6.64977e-7,1.00309e6
6.67795e-7,986124.0
6.706249999999999e-7,969502.0
6.73467e-7,953213.0
6.763209999999999e-7,937249.0000000001
6.79188e-7,921603.0
6.82066e-7,906267.0000000001
6.84957e-7,891234.0
6.878589999999999e-7,876496.0
6.92238e-7,854922.0
6.96642e-7,833991.0
7.010769999999999e-7,813651.0
7.055369999999999e-7,793912.0
7.100279999999999e-7,774724.0
7.14545e-7,756098.0
7.19094e-7,737987.0
7.236679999999999e-7,720400.0
7.282749999999999e-7,703295.0
7.32908e-7,686681.0
7.37574e-7,670519.0
7.422659999999999e-7,654817.0
7.46991e-7,639537.0
7.51743e-7,624688.0
7.565289999999999e-7,610235.0
7.61341e-7,596185.0
7.66188e-7,582506.0
7.710619999999999e-7,569206.0
7.75971e-7,556252.0
7.80907e-7,543654.0
7.85878e-7,531383.0
7.908769999999999e-7,519445.0
7.95912e-7,507814.00000000006
8.00975e-7,496495.99999999994
8.060739999999999e-7,485468.0
8.112019999999999e-7,474734.00000000006
8.163659999999999e-7,464272.0
8.2156e-7,454087.0
8.267899999999999e-7,444158.0
8.320489999999999e-7,434490.99999999994
8.373459999999999e-7,425064.0
8.426729999999999e-7,415883.99999999994
8.48037e-7,406931.0
8.534319999999999e-7,398210.0
8.588649999999999e-7,389702.0
8.64329e-7,381414.0
8.698309999999999e-7,373328.0
8.753640000000001e-7,365449.0
8.809369999999999e-7,357759.0
8.865410000000001e-7,350265.0
8.921849999999999e-7,342951.0
8.9786e-7,335822.0
9.03576e-7,328862.0
9.093239999999999e-7,322076.0
9.15113e-7,315452.0
9.209339999999999e-7,308992.0
9.26797e-7,302683.0
9.32693e-7,296531.0
9.3863e-7,290523.0
9.446009999999998e-7,284662.0
9.506149999999999e-7,278937.0
9.566619999999999e-7,273352.0
9.62752e-7,267896.0
9.68877e-7,262572.0
9.75044e-7,257371.00000000003
9.812469999999998e-7,252294.99999999997
9.87494e-7,247335.0
9.93776e-7,242494.0
1.0001e-6,237763.0
1.0064599999999998e-6,233146.0
1.0135599999999999e-6,228152.0
1.0206599999999998e-6,223320.0
1.0278599999999999e-6,218577.00000000003
1.03506e-6,213987.00000000003
