E(MeV),xs(mb)
1.0e-11,582595.0
1.03223e-11,573434.0
1.06549e-11,564422.0
1.0998399999999998e-11,555547.0
1.13527e-11,546816.0
1.1718599999999999e-11,538219.0
1.2096199999999998e-11,529761.0
1.24861e-11,521432.0
1.2888399999999999e-11,513238.00000000006
1.3303799999999998e-11,505170.00000000006
1.37325e-11,497232.0
1.41751e-11,489416.0
1.4631799999999997e-11,481726.0
1.51034e-11,474155.0
1.5590099999999998e-11,466704.99999999994
1.6092599999999998e-11,459370.0
1.66111e-11,452153.0
1.71465e-11,445048.0
1.7699e-11,438056.99999999994
1.8269399999999998e-11,431173.0
1.88581e-11,424401.0
1.94659e-11,417733.00000000006
2.00931e-11,411172.0
2.0740699999999998e-11,404711.99999999994
2.1408999999999998e-11,398356.0
2.2099099999999997e-11,392099.0
2.28111e-11,385942.0
2.3546399999999998e-11,379880.0
2.4305099999999997e-11,373915.0
2.50884e-11,368043.0
2.5896799999999997e-11,362265.0
2.67315e-11,356576.0
2.75928e-11,350979.0
2.8482199999999998e-11,345469.0
2.93999e-11,340046.0
3.0347499999999995e-11,334708.0
3.13253e-11,329456.0
3.2335e-11,324285.0
3.33769e-11,319196.0
3.44526e-11,314187.0
3.55627e-11,309258.0
3.67089e-11,304406.0
3.7891799999999997e-11,299631.0
3.9113e-11,294931.0
4.0373400000000003e-11,290306.0
4.1674599999999996e-11,285752.0
4.3017399999999996e-11,281272.0
4.440389999999999e-11,276861.0
4.58347e-11,272521.0
4.7311899999999994e-11,268249.0
4.883639999999999e-11,264044.0
5.0410399999999995e-11,259906.00000000003
5.20348e-11,255833.00000000003
5.37119e-11,251824.0
5.54426e-11,247879.0
5.7229499999999995e-11,243996.0
5.907359999999999e-11,240174.99999999997
6.09775e-11,236412.99999999997
6.29424e-11,232712.0
6.497099999999999e-11,229068.0
6.70645e-11,225483.0
6.9226e-11,221952.99999999997
7.145659999999999e-11,218480.0
7.37596e-11,215061.0
7.61364e-11,211696.99999999997
7.85902e-11,208386.0
8.11227e-11,205127.00000000003
8.37372e-11,201920.0
8.643549999999999e-11,198764.0
8.922119999999998e-11,195657.0
9.209619999999999e-11,192600.0
9.506439999999999e-11,189590.0
9.81277e-11,186629.0
1.01291e-10,183714.0
1.04554e-10,180846.0
1.07924e-10,178022.0
1.11402e-10,175245.0
1.1499200000000001e-10,172510.0
1.1869700000000001e-10,169819.0
1.22523e-10,167170.0
1.26471e-10,164564.0
1.30547e-10,161999.0
1.34754e-10,159475.0
1.3909700000000002e-10,156990.0
1.43579e-10,154545.0
1.48207e-10,152139.0
1.52982e-10,149771.0
1.57913e-10,147440.0
1.6300100000000001e-10,145147.0
1.68254e-10,142889.0
1.73676e-10,140668.0
1.79274e-10,138481.0
1.8505000000000002e-10,136330.0
1.91014e-10,134212.0
1.97169e-10,132129.0
2.03524e-10,130078.0
2.1008200000000003e-10,128060.0
2.16853e-10,126074.0
2.2384e-10,124119.0
2.31055e-10,122196.0
2.385e-10,120303.0
2.46187e-10,118439.99999999999
2.5412e-10,116607.0
2.6231e-10,114802.0
2.70762e-10,113027.00000000001
2.7948900000000003e-10,111280.0
2.88494e-10,109559.99999999999
2.9779300000000004e-10,107868.00000000001
3.07388e-10,106203.0
3.1729500000000004e-10,104563.99999999999
3.27519e-10,102950.99999999999
3.38075e-10,101364.00000000001
3.4896900000000003e-10,99802.09999999999
3.6021600000000004e-10,98264.8
3.7182300000000004e-10,96752.40000000001
3.83807e-10,95263.6
3.96174e-10,93798.9
4.08943e-10,92357.09999999999
4.2212e-10,90938.59999999999
4.3572499999999996e-10,89542.3
4.4976500000000005e-10,88168.5
4.6426100000000007e-10,86816.20000000001
4.79221e-10,85485.79999999999
4.94666e-10,84176.2
5.10605e-10,82887.7
5.270620000000001e-10,81619.4
5.440450000000001e-10,80371.6
5.6158e-10,79143.3
5.796750000000001e-10,77934.8
5.98358e-10,76745.3
6.176389999999999e-10,75574.9
6.37545e-10,74422.9
6.58089e-10,73289.40000000001
6.79298e-10,72173.7
7.01188e-10,71075.9
7.237860000000001e-10,69995.4
7.47109e-10,68932.2
7.71188e-10,67885.8
7.960380000000001e-10,66856.09999999999
8.21693e-10,65842.59999999999
8.48171e-10,64845.4
8.75507e-10,63863.8
9.037190000000002e-10,62897.99999999999
9.32845e-10,61947.299999999996
9.62904e-10,61011.9
9.93937e-10,60091.200000000004
1.0259700000000001e-9,59185.2
1.05903e-9,58293.5
1.09316e-9,57416.0
1.12839e-9,56552.4
1.16475e-9,55702.5
1.2022900000000002e-9,54866.0
1.2410300000000002e-9,54042.899999999994
1.28103e-9,53232.7
1.3223100000000002e-9,52435.5
1.36492e-9,51650.799999999996
1.4089000000000002e-9,50878.7
1.4543100000000001e-9,50118.600000000006
1.5011699999999999e-9,49370.799999999996
1.5495600000000002e-9,48634.6
1.5994900000000002e-9,47910.2
1.6510400000000001e-9,47197.2
1.7042400000000001e-9,46495.6
1.75917e-9,45805.0
1.81585e-9,45125.4
1.87438e-9,44456.5
1.9347700000000003e-9,43798.3
1.99713e-9,43150.399999999994
2.06148e-9,42512.8
2.1279200000000002e-9,41885.3
2.19649e-9,41267.8
2.26728e-9,40659.9
2.3403400000000002e-9,40061.7
2.4157700000000002e-9,39473.0
2.49362e-9,38893.6
2.5739800000000002e-9,38323.299999999996
2.66255e-9,37724.9
2.75418e-9,37136.7
2.84895e-9,36558.299999999996
2.9469900000000004e-9,35989.7
3.0484000000000004e-9,35430.700000000004
3.1532900000000004e-9,34881.1
3.2618e-9,34340.799999999996
3.3740500000000004e-9,33809.6
3.49015e-9,33287.3
3.6102500000000004e-9,32773.8
3.7344800000000005e-9,32268.9
3.8629900000000005e-9,31772.6
3.99592e-9,31284.6
4.13343e-9,30804.8
4.2756600000000005e-9,30333.199999999997
4.42279e-9,29869.4
4.57499e-9,29413.5
4.7324200000000005e-9,28965.2
4.89527e-9,28524.5
5.06372e-9,28091.2
5.23797e-9,27665.199999999997
5.418210000000001e-9,27246.3
5.60466e-9,26834.5
5.79752e-9,26429.6
5.9970200000000005e-9,26031.6
6.2033800000000006e-9,25640.2
6.416850000000001e-9,25255.399999999998
6.6376600000000004e-9,24877.1
6.86607e-9,24505.2
7.1023400000000005e-9,24139.4
7.34674e-9,23779.9
7.59955e-9,23426.399999999998
7.861060000000001e-9,23078.8
8.13157e-9,22737.0
8.411390000000002e-9,22401.0
8.70083e-9,22070.6
9.00024e-9,21745.800000000003
9.309950000000001e-9,21426.5
9.63031e-9,21112.5
9.9617e-9,20803.8
1.0304500000000001e-8,20500.3
1.06591e-8,20201.899999999998
1.10259e-8,19908.5
1.14053e-8,19620.0
1.17978e-8,19336.4
1.22037e-8,19057.5
1.26237e-8,18783.3
1.3058099999999999e-8,18513.7
1.3507400000000002e-8,18248.7
1.3972199999999999e-8,17988.0
1.4453e-8,17731.8
1.49504e-8,17479.8
1.5464800000000002e-8,17232.0
1.5997e-8,16988.399999999998
1.65475e-8,16748.9
1.7116899999999998e-8,16513.4
1.77059e-8,16281.8
1.83152e-8,16054.2
1.89454e-8,15830.3
1.96388e-8,15596.6
2.0357599999999998e-8,15367.0
2.11027e-8,15141.500000000002
2.18751e-8,14920.0
2.26757e-8,14702.5
2.35057e-8,14488.8
2.4365999999999998e-8,14279.0
2.52522e-8,14074.1
2.5299999999999998e-8,14063.4
2.6226099999999998e-8,13861.1
2.71859e-8,13662.4
2.8181e-8,13467.199999999999
2.9212400000000002e-8,13275.5
3.0281600000000004e-8,13087.2
3.13899e-8,12902.199999999999
3.2538900000000006e-8,12720.499999999998
3.37297e-8,12542.0
3.4964300000000004e-8,12366.6
3.6244000000000003e-8,12194.400000000001
3.7570600000000004e-8,12025.2
3.89456e-8,11859.0
4.03712e-8,11695.800000000001
4.1848700000000003e-8,11535.4
4.33805e-8,11377.900000000001
4.4968199999999994e-8,11223.2
4.66141e-8,11071.2
4.8320100000000004e-8,10921.9
5.008880000000001e-8,10775.300000000001
5.1922e-8,10631.3
5.38225e-8,10489.800000000001
5.57923e-8,10350.8
5.79568e-8,10206.3
6.02052e-8,10064.5
6.25408e-8,9925.28
6.496710000000001e-8,9788.66
6.74875e-8,9654.58
7.01057e-8,9523.0
7.282549999999999e-8,9393.869999999999
7.56507e-8,9267.14
7.85856e-8,9142.76
8.16343e-8,9020.699999999999
8.480130000000001e-8,8900.9
8.80912e-8,8783.31
9.15087e-8,8667.91
9.50588e-8,8554.65
9.874660000000001e-8,8443.48
1.02577e-7,8334.390000000001
1.0655699999999998e-7,8227.33
1.10691e-7,8122.249999999999
1.14985e-7,8019.09
1.19699e-7,7912.219999999999
1.24606e-7,7807.419999999999
1.29714e-7,7704.62
1.3503099999999999e-7,7603.81
1.40567e-7,7504.9400000000005
1.4632899999999999e-7,7407.99
1.5232799999999999e-7,7312.89
1.58572e-7,7219.63
1.6507299999999999e-7,7128.14
1.7183999999999998e-7,7038.41
1.78884e-7,6950.389999999999
1.86217e-7,6864.05
1.9385099999999998e-7,6779.34
2.01798e-7,6696.259999999999
2.1007099999999998e-7,6614.78
2.19145e-7,6530.69
2.2861199999999998e-7,6448.22
2.38487e-7,6367.35
2.48789e-7,6288.0599999999995
2.59536e-7,6210.33
2.70747e-7,6134.11
2.82443e-7,6059.38
2.94644e-7,5986.09
3.07372e-7,5914.22
3.20649e-7,5843.73
3.3450099999999996e-7,5774.59
3.49688e-7,5703.42
3.65567e-7,5633.650000000001
3.82165e-7,5565.2699999999995
3.9951799999999996e-7,5498.22
4.1765699999999997e-7,5432.509999999999
4.36622e-7,5368.11
4.5644600000000004e-7,5304.92
4.77173e-7,5242.9
4.98838e-7,5182.0599999999995
5.214889999999999e-7,5122.35
5.463219999999999e-7,5061.0
5.72337e-7,5000.83
5.9959e-7,4941.82
6.28142e-7,4883.93
6.58053e-7,4827.12
6.893889999999999e-7,4771.36
7.22216e-7,4716.610000000001
7.56607e-7,4662.849999999999
7.94312e-7,4607.68
8.33899e-7,4553.5
8.754549999999999e-7,4500.3099999999995
9.19087e-7,4448.08
9.64888e-7,4396.68
1.0065699999999998e-6,4352.75
1.0645899999999999e-6,4295.54
1.1418299999999998e-6,4225.44
1.2333199999999998e-6,4150.15
1.3604e-6,4057.03
1.52174e-6,3953.6
1.7262299999999999e-6,3841.16
2.01385e-6,3708.1400000000003
2.38253e-6,3567.59
2.8187099999999996e-6,3431.24
3.33473e-6,3298.12
3.97287e-6,3161.68
4.70019e-6,3031.92
5.5606699999999996e-6,2903.02
6.57868e-6,2774.4300000000003
7.783059999999999e-6,2645.82
9.14388e-6,2522.5
1.06674e-5,2404.1299999999997
1.2444700000000001e-5,2285.5699999999997
1.4416500000000002e-5,2172.6800000000003
1.65845e-5,2065.5
1.89458e-5,1964.06
2.1795e-5,1858.2099999999998
2.47238e-5,1763.91
2.8046200000000003e-5,1670.6000000000001
3.18151e-5,1578.5800000000002
3.5837600000000004e-5,1492.85
4.037060000000001e-5,1408.4399999999998
4.5158600000000005e-5,1329.63
5.0514300000000005e-5,1251.5400000000002
5.6901e-5,1168.56
6.500270000000001e-5,1073.45
7.530190000000001e-5,955.9900000000001
7.908820000000001e-5,911.8130000000001
8.01034e-5,903.8119999999999
8.05646e-5,902.499
8.11967e-5,905.7750000000001
8.16181e-5,913.877
8.19342e-5,925.427
8.21448e-5,937.12
8.23503e-5,952.914
8.25504e-5,974.0640000000001
8.270060000000002e-5,994.9909999999999
8.28507e-5,1021.7199999999999
8.30008e-5,1056.12
8.31035e-5,1085.4299999999998
8.320890000000002e-5,1121.76
8.331420000000001e-5,1166.07
8.339320000000002e-5,1205.8500000000001
8.347230000000001e-5,1252.57
8.355130000000002e-5,1307.76
8.36303e-5,1373.44
8.3683e-5,1424.29
8.37356e-5,1481.9199999999998
8.378830000000001e-5,1547.5
8.384100000000001e-5,1622.49
8.38937e-5,1708.6699999999998
8.393050000000001e-5,1776.8500000000001
8.39674e-5,1852.55
8.400430000000001e-5,1936.9
8.404120000000002e-5,2031.24
8.4078e-5,2137.2
8.411490000000001e-5,2256.7400000000002
8.41518e-5,2392.3
8.417940000000001e-5,2506.2700000000004
8.4215e-5,2671.0699999999997
8.42413e-5,2808.63
8.42677e-5,2961.6699999999996
8.4294e-5,3132.77
8.43203e-5,3325.1499999999996
8.434010000000002e-5,3485.83
8.435980000000001e-5,3662.93
8.437960000000001e-5,3859.07
8.439930000000001e-5,4077.53
8.442040000000001e-5,4339.7699999999995
8.44362e-5,4559.87
8.445200000000001e-5,4803.62
8.44678e-5,5075.01
8.44836e-5,5378.82
8.44994e-5,5720.88
8.451520000000001e-5,6108.23
8.45258e-5,6395.75
8.453630000000001e-5,6710.099999999999
8.45468e-5,7054.58
8.455740000000001e-5,7432.97
8.45679e-5,7849.490000000001
8.4579e-5,8333.08
8.459e-5,8870.14
8.46011e-5,9467.62
8.46121e-5,10133.300000000001
8.46232e-5,10875.8
8.463430000000001e-5,11704.8
8.464530000000001e-5,12630.999999999998
8.465640000000001e-5,13665.9
8.46638e-5,14422.6
8.467110000000001e-5,15237.400000000001
8.467850000000001e-5,16114.599999999999
8.468850000000001e-5,17413.0
8.46964e-5,18533.1
8.470430000000002e-5,19743.6
8.471220000000001e-5,21051.1
8.47201e-5,22462.399999999998
8.4728e-5,23984.5
8.47359e-5,25624.600000000002
8.474380000000001e-5,27390.2
8.475170000000001e-5,29288.8
8.475960000000001e-5,31328.2
8.47675e-5,33516.2
8.477650000000001e-5,36185.6
8.478600000000001e-5,39243.700000000004
8.47955e-5,42553.200000000004
8.48049e-5,46127.3
8.48144e-5,49978.3
8.482070000000001e-5,52705.3
8.48313e-5,57544.3
8.484180000000001e-5,62762.5
8.48523e-5,68371.4
8.486290000000001e-5,74380.3
8.48734e-5,80795.4
8.488390000000002e-5,87619.7
8.48945e-5,94852.5
8.490500000000001e-5,102489.00000000001
8.492080000000001e-5,114677.99999999999
8.49366e-5,127702.0
8.495240000000001e-5,141481.0
8.497350000000001e-5,160844.0
8.50062e-5,192344.0
8.50432e-5,228450.0
8.50685e-5,251860.99999999997
8.50854e-5,266348.0
8.510220000000001e-5,279592.0
8.511910000000002e-5,291312.0
8.5136e-5,301248.0
8.515280000000002e-5,309176.0
8.516970000000002e-5,314913.0
8.51865e-5,318324.0
8.520080000000001e-5,319335.0
8.52177e-5,318279.0
8.523030000000002e-5,315911.0
8.52472e-5,310716.0
8.526410000000001e-5,303310.0
8.528090000000002e-5,293873.0
8.529780000000001e-5,282623.0
8.53146e-5,269815.0
8.53315e-5,255726.0
8.53568e-5,232832.99999999997
8.54242e-5,168294.0
8.54486e-5,145944.0
8.54655e-5,131368.0
8.548230000000001e-5,117626.00000000001
8.549500000000001e-5,107925.0
8.550760000000001e-5,98773.9
8.55224e-5,88814.3
8.553290000000002e-5,82179.40000000001
8.55434e-5,75943.4
8.555400000000001e-5,70102.7
8.55645e-5,64650.0
8.557499999999999e-5,59575.8
8.55856e-5,54867.9
8.55961e-5,50512.8
8.56064e-5,46591.2
8.56167e-5,42975.2
8.56269e-5,39648.6
8.563720000000001e-5,36595.0
8.564750000000001e-5,33797.700000000004
8.565770000000002e-5,31240.100000000002
8.566800000000001e-5,28905.6
8.567830000000001e-5,26778.0
8.568860000000001e-5,24841.7
8.569880000000001e-5,23081.5
8.57057e-5,21998.7
8.571490000000001e-5,20647.3
8.57241e-5,19409.0
8.573330000000001e-5,18274.8
8.574260000000001e-5,17236.100000000002
8.57518e-5,16284.9
8.576100000000001e-5,15413.699999999999
8.57702e-5,14615.400000000001
8.577940000000001e-5,13883.8
8.578860000000001e-5,13212.6
8.57979e-5,12596.5
8.58117e-5,11764.6
8.582550000000001e-5,11029.9
8.583930000000001e-5,10379.199999999999
8.58532e-5,9800.72
8.58663e-5,9307.91
8.58795e-5,8864.21
8.589270000000002e-5,8463.19
8.59058e-5,8099.349999999999
8.592560000000002e-5,7613.11
8.59454e-5,7186.78
8.596510000000001e-5,6809.85
8.59849e-5,6474.01
8.600460000000001e-5,6172.63
8.60244e-5,5900.45
8.60507e-5,5575.75
8.6077e-5,5287.59
8.610340000000001e-5,5029.93
8.612970000000001e-5,4798.06
8.615610000000001e-5,4588.25
8.619560000000001e-5,4308.49
8.62351e-5,4063.76
8.62746e-5,3848.0099999999998
8.631930000000002e-5,3632.6200000000003
8.636410000000001e-5,3443.07
8.640890000000001e-5,3275.14
8.64537e-5,3125.47
8.64984e-5,2991.38
8.654320000000002e-5,2870.66
8.66104e-5,2710.77
8.66591e-5,2608.27
8.67381e-5,2462.04
8.681710000000001e-5,2336.2799999999997
8.689610000000001e-5,2227.17
8.697520000000001e-5,2131.78
8.705420000000001e-5,2047.79
8.7149e-5,1959.5
8.72438e-5,1882.53
8.730700000000001e-5,1836.52
8.74334e-5,1755.16
8.75598e-5,1685.52
8.77179e-5,1611.54
8.78759e-5,1549.08
8.803390000000001e-5,1495.73
8.819190000000002e-5,1449.7199999999998
8.840260000000001e-5,1397.44
8.861330000000001e-5,1353.36
8.882400000000002e-5,1315.73
8.91401e-5,1268.6200000000001
8.945610000000001e-5,1230.03
8.987750000000001e-5,1188.27
9.024710000000001e-5,1158.4099999999999
9.07237e-5,1126.63
9.135920000000002e-5,1092.74
9.20037e-5,1065.3
9.29749e-5,1032.8
9.39552e-5,1007.23
9.52808e-5,979.851
9.6625e-5,957.6599999999999
9.867940000000002e-5,930.547
0.00010148299999999999,901.735
0.00010436700000000001,878.289
0.000107226,860.2959999999999
0.000108961,854.1510000000001
0.000109212,854.0319999999999
0.000109883,856.064
0.00011026100000000002,860.0479999999999
0.000110638,868.623
0.00011089,879.5680000000001
0.000111079,893.2909999999999
0.00011118600000000002,904.7919999999999
0.000111275,917.545
0.000111365,934.6819999999999
0.000111431,951.8750000000001
0.00011149800000000001,974.9000000000001
0.000111551,999.3690000000001
0.00011159,1023.4499999999999
0.00011162900000000001,1054.86
0.000111656,1081.49
0.00011168199999999999,1114.29
0.00011170800000000001,1155.0800000000002
0.000111729,1196.1200000000001
0.00011175100000000001,1245.71
0.000111767,1289.6499999999999
0.00011178300000000001,1340.4
0.000111799,1399.01
0.000111815,1466.6399999999999
0.00011183200000000001,1544.5800000000002
0.000111848,1634.22
0.00011186400000000001,1737.08
0.00011188,1854.73
0.00011189199999999999,1951.17
0.000111904,2057.1000000000004
0.00011191500000000002,2173.2
0.000111927,2300.15
0.00011193900000000001,2438.6299999999997
0.000111951,2589.28
0.00011196200000000001,2752.73
0.000111974,2929.52
0.00011198600000000001,3120.24
0.00011199800000000001,3325.27
0.000112011,3570.37
0.00011202700000000002,3888.95
0.00011204200000000001,4234.5
0.00011205799999999999,4606.849999999999
0.00011207400000000001,5005.42
0.00011209,5429.01
0.00011211100000000001,6029.79
0.00011213200000000002,6666.23
0.00011216299999999999,7670.46
0.000112226,9735.67
0.000112256,10631.1
0.00011228100000000002,11324.5
0.00011229800000000001,11735.4
0.00011231400000000001,12097.199999999999
0.000112331,12403.5
0.000112348,12649.1
0.00011236500000000001,12829.4
0.000112384,12951.900000000001
0.00011240000000000002,12982.6
0.00011241300000000001,12961.3
0.000112431,12861.400000000001
0.00011245000000000001,12661.0
0.000112466,12432.7
0.00011248400000000002,12116.3
0.000112504,11680.0
0.00011252800000000002,11084.400000000001
0.00011255500000000001,10300.6
0.00011258600000000001,9313.380000000001
0.00011265400000000001,7113.139999999999
0.00011268000000000001,6298.67
0.00011270100000000002,5682.97
0.00011272200000000002,5106.36
0.000112738,4702.37
0.000112753,4324.23
0.00011276900000000002,3972.72
0.00011278500000000001,3648.0
0.000112801,3349.9500000000003
0.00011281500000000001,3095.29
0.000112828,2894.5699999999997
0.00011284000000000001,2709.45
0.00011285300000000001,2539.31
0.000112866,2383.42
0.000112878,2241.04
0.00011289100000000001,2111.33
0.000112903,1993.52
0.000112916,1886.78
0.00011292800000000001,1790.3
0.000112941,1703.27
0.00011295200000000001,1635.84
0.00011296500000000001,1561.49
0.000112978,1495.07
0.000112991,1435.8
0.000113004,1382.97
0.000113024,1314.3700000000001
0.000113044,1256.74
0.00011306300000000001,1208.31
0.000113083,1167.5500000000002
0.000113103,1133.1599999999999
0.000113129,1095.31
0.00011315500000000001,1064.6899999999998
0.000113181,1039.6499999999999
0.00011322000000000002,1009.87
0.00011326000000000001,986.767
0.000113312,962.9889999999999
0.00011336500000000001,944.6170000000001
0.000113443,923.616
0.000113522,907.79
0.00011362699999999999,891.8839999999999
0.00011378400000000001,875.0120000000001
0.00011394100000000001,863.254
0.000114099,854.6279999999999
0.00011441300000000002,842.836
0.00011491700000000001,831.637
0.00011575500000000002,821.236
0.000117265,810.7849999999999
0.000119759,800.032
0.000124024,788.163
0.000128448,781.8629999999999
0.000131173,781.004
0.000134953,784.401
0.00013878800000000001,793.606
0.000141423,804.069
0.000144422,820.546
0.000147493,843.366
0.000149574,862.9659999999999
0.000152215,893.4710000000001
0.00015382400000000002,915.493
0.000155994,949.8889999999999
0.000157968,985.875
0.000159969,1028.64
0.000161657,1070.1000000000001
0.000163362,1117.27
0.00016509,1171.72
0.000166835,1233.8700000000001
0.00016859200000000001,1305.3799999999999
0.000170358,1386.91
0.000171509,1446.29
0.00017266,1511.0900000000001
0.000173811,1581.8700000000001
0.000174962,1659.24
0.000176113,1743.9499999999998
0.000177264,1836.78
0.000178415,1938.68
0.000179566,2050.71
0.000180717,2174.09
0.00018186800000000001,2310.2299999999996
0.000183019,2460.75
0.00018417,2627.56
0.000185321,2812.8700000000003
0.000186472,3018.7200000000003
0.000187335,3188.6
0.000188199,3374.04
0.00018906200000000001,3576.29
0.00018992500000000002,3797.26
0.000190788,4039.2900000000004
0.000191652,4304.9
0.000192515,4597.209999999999
0.00019337800000000002,4919.660000000001
0.000194241,5276.4800000000005
0.000195105,5672.44
0.000195968,6113.43
0.000196831,6606.200000000001
0.00019740600000000001,6967.55
0.000197982,7358.44
0.000198739,7922.96
0.000199495,8552.83
0.0002,9014.13
0.00020050300000000001,9510.71
0.00020100500000000003,10048.3
0.00020150800000000004,10631.4
0.000202011,11265.400000000001
0.000202514,11957.800000000001
