E(MeV),xs(mb)
1.0e-11,131749.0
1.03223e-11,129721.0
1.06549e-11,127726.0
1.0998399999999998e-11,125763.0
1.13527e-11,123832.00000000001
1.1718599999999999e-11,121930.99999999999
1.2096199999999998e-11,120062.0
1.24861e-11,118222.0
1.2888399999999999e-11,116413.00000000001
1.3303799999999998e-11,114632.0
1.37325e-11,112880.0
1.41751e-11,111157.0
1.4631799999999997e-11,109461.99999999999
1.51034e-11,107793.0
1.5590099999999998e-11,106153.00000000001
1.6092599999999998e-11,104538.0
1.66111e-11,102950.00000000001
1.71465e-11,101387.99999999999
1.7699e-11,99851.6
1.8269399999999998e-11,98339.70000000001
1.88581e-11,96853.0
1.94659e-11,95390.09999999999
2.00931e-11,93951.6
2.0740699999999998e-11,92536.29999999999
2.1408999999999998e-11,91144.59999999999
2.2099099999999997e-11,89775.3
2.28111e-11,88429.0
2.3546399999999998e-11,87104.40000000001
2.4305099999999997e-11,85802.0
2.50884e-11,84520.8
2.5896799999999997e-11,83261.1
2.67315e-11,82022.0
2.75928e-11,80803.6
2.8482199999999998e-11,79605.3
2.93999e-11,78427.1
3.0347499999999995e-11,77268.3
3.13253e-11,76129.0
3.2335e-11,75008.6
3.33769e-11,73907.2
3.44526e-11,72823.90000000001
3.55627e-11,71759.1
3.67089e-11,70712.0
3.7891799999999997e-11,69682.8
3.9113e-11,68670.7
4.0373400000000003e-11,67676.0
4.1674599999999996e-11,66697.9
4.3017399999999996e-11,65736.6
4.440389999999999e-11,64791.5
4.58347e-11,63862.8
4.7311899999999994e-11,62949.6
4.883639999999999e-11,62052.4
5.0517e-11,61112.1
5.22553e-11,60189.2
5.40535e-11,59283.200000000004
5.59135e-11,58393.8
5.7837599999999995e-11,57521.00000000001
5.98278e-11,56664.3
6.18866e-11,55823.5
6.401619999999999e-11,54998.3
6.621909999999999e-11,54188.6
6.84977e-11,53394.1
7.085479999999999e-11,52614.4
7.3293e-11,51849.4
7.581509999999999e-11,51098.9
7.8424e-11,50362.600000000006
8.11227e-11,49640.3
8.391419999999999e-11,48931.7
8.680179999999999e-11,48236.7
8.978870000000001e-11,47554.9
9.287850000000001e-11,46886.299999999996
9.60745e-11,46230.6
9.93806e-11,45587.5
1.0280000000000001e-10,44956.899999999994
1.06338e-10,44338.6
1.09997e-10,43732.3
1.1378200000000001e-10,43137.9
1.17698e-10,42555.2
1.21748e-10,41983.9
1.25937e-10,41424.0
1.3027100000000001e-10,40875.1
1.34754e-10,40337.1
1.39686e-10,39777.1
1.4479800000000002e-10,39229.3
1.5009900000000002e-10,38692.9
1.55592e-10,38168.1
1.6128700000000002e-10,37654.4
1.6719e-10,37151.9
1.7331000000000002e-10,36660.1
1.7965199999999999e-10,36179.0
1.86229e-10,35708.3
1.93044e-10,35247.9
2.0011000000000002e-10,34797.4
2.0743299999999998e-10,34356.9
2.15027e-10,33925.8
2.22896e-10,33504.4
2.31055e-10,33092.1
2.39511e-10,32689.0
2.4880300000000004e-10,32271.800000000003
2.58455e-10,31864.4
2.6848100000000005e-10,31466.6
2.78897e-10,31078.0
2.8971700000000003e-10,30698.699999999997
3.0095700000000004e-10,30328.2
3.1263200000000005e-10,29966.499999999996
3.24761e-10,29613.3
3.3736e-10,29268.399999999998
3.51191e-10,28913.199999999997
3.6558600000000004e-10,28566.899999999998
3.8057400000000004e-10,28229.1
3.96174e-10,27899.8
4.12416e-10,27578.7
4.2932100000000003e-10,27265.600000000002
4.4692299999999997e-10,26960.3
4.6524200000000006e-10,26662.6
4.85339e-10,26357.2
5.063049999999999e-10,26059.7
5.28176e-10,25770.0
5.50992e-10,25487.8
5.747930000000001e-10,25213.0
5.99623e-10,24945.300000000003
6.268510000000001e-10,24671.6
6.553110000000001e-10,24405.3
6.85068e-10,24146.2
7.16172e-10,23894.1
7.486919999999999e-10,23648.8
7.84344e-10,23398.8
8.21693e-10,23155.899999999998
8.60821e-10,22919.7
9.01812e-10,22690.0
9.44755e-10,22466.8
9.91835e-10,22240.000000000004
1.04127e-9,22019.7
1.09316e-9,21805.7
1.14764e-9,21597.8
1.20738e-9,21387.3
1.2702400000000002e-9,21182.9
1.3363600000000001e-9,20984.600000000002
1.40593e-9,20792.199999999997
1.4822500000000001e-9,20597.699999999997
1.5627200000000002e-9,20409.199999999997
1.6475500000000002e-9,20226.4
1.7406600000000003e-9,20042.100000000002
1.83904e-9,19863.6
1.9429700000000004e-9,19690.8
2.05714e-9,19516.899999999998
2.17799e-9,19348.7
2.3059599999999998e-9,19185.9
2.4466100000000005e-9,19022.5
2.59584e-9,18864.6
2.75418e-9,18711.899999999998
2.9283400000000003e-9,18559.1
3.11354e-9,18411.4
3.3174500000000004e-9,18263.899999999998
3.53471e-9,18121.6
3.7662000000000005e-9,17984.2
4.021340000000001e-9,17847.2
4.2937800000000004e-9,17715.1
4.59438e-9,17583.8
4.916010000000001e-9,17457.2
5.27129e-9,17331.5
5.65226e-9,17210.6
6.07359e-9,17090.7
6.54012e-9,16972.100000000002
7.04252e-9,16858.2
7.59955e-9,16745.7
8.200640000000001e-9,16637.8
8.86798e-9,16531.4
9.60995e-9,16426.7
1.0436099999999999e-8,16323.8
1.13331e-8,16225.300000000001
1.2333400000000002e-8,16128.800000000001
1.34504e-8,16034.2
1.4699599999999999e-8,15941.8
1.60988e-8,15851.5
1.76685e-8,15763.5
1.94323e-8,15677.9
2.14174e-8,15594.699999999999
2.3655300000000002e-8,15513.9
2.52522e-8,15463.1
2.5299999999999998e-8,15461.6
2.8062100000000002e-8,15384.500000000002
3.11915e-8,15310.0
3.47432e-8,15238.1
3.88635e-8,15167.5
4.3564299999999995e-8,15099.6
4.9040800000000005e-8,15033.4
5.5439600000000004e-8,14968.8
6.280590000000001e-8,14907.1
7.14528e-8,14847.300000000001
8.16343e-8,14789.5
9.36623e-8,14733.8
1.0814600000000001e-7,14679.5
1.25399e-7,14627.4
1.4632899999999999e-7,14577.0
1.7183999999999998e-7,14528.4
2.0308199999999997e-7,14481.599999999999
2.4153199999999997e-7,14436.7
2.89701e-7,14393.3
3.50429e-7,14351.5
4.2839099999999996e-7,14310.8
5.281469999999999e-7,14271.5
6.59445e-7,14233.0
8.32136e-7,14195.3
1.0645899999999999e-6,14157.5
1.82573e-6,14078.4
4.9365300000000005e-6,13914.4
1.3162000000000002e-5,13660.300000000001
2.7080200000000002e-5,13366.3
4.7097e-5,13070.1
7.636430000000001e-5,12763.3
0.00012518000000000002,12387.5
0.00021887500000000002,11738.699999999999
0.00025872000000000004,11390.499999999998
0.000285301,11085.400000000001
0.000304427,10792.3
0.000318026,10513.9
0.0003275,10260.0
0.00033553,9979.570000000002
0.00034125000000000003,9721.81
0.0003462,9438.359999999999
0.00034950000000000004,9203.92
0.0003528,8917.54
0.00035555,8623.42
0.00035775000000000005,8338.6
0.0003594,8086.44
0.00036105,7791.87
0.0003627,7442.64
0.0003638,7171.14
0.00036490000000000003,6861.2
0.000366,6504.31
0.00036682500000000004,6199.42
0.00036765,5856.54
0.00036847500000000005,5469.299999999999
0.00036919700000000004,5088.7
0.000369867,4696.65
0.000370538,4264.88
0.000371053,3906.99
0.000372256,3028.19
0.000372514,2850.86
0.00037277200000000006,2690.34
0.000372944,2598.14
0.000373116,2523.1499999999996
0.000373245,2481.92
0.000373352,2460.09
0.000373465,2452.2200000000003
0.00037354500000000003,2457.8700000000003
0.000373627,2474.86
0.000373709,2504.94
0.00037379,2550.17
0.000373872,2612.93
0.000373936,2676.7
0.000374001,2754.71
0.000374067,2852.23
0.000374138,2977.4500000000003
0.000374194,3093.69
0.000374256,3242.5899999999997
0.000374316,3409.0699999999997
0.00037437,3584.2200000000003
0.000374428,3795.66
0.000374473,3980.69
0.000374516,4175.44
0.000374559,4390.0199999999995
0.000374611,4676.43
0.000374663,4997.91
0.000374705,5295.71
0.000374748,5623.64
0.000374791,5984.88
0.000374834,6382.98
0.000374877,6821.990000000001
0.00037492000000000005,7306.47
0.000374963,7841.63
0.000375006,8433.400000000001
0.000375045,9020.060000000001
0.00037508400000000003,9663.77
0.00037512200000000003,10371.0
0.000375161,11149.3
0.0003752,12007.099999999999
0.00037524000000000005,12998.7
0.00037526700000000004,13736.4
0.000375295,14530.099999999999
0.000375323,15385.2
0.00037535,16307.7
0.000375378,17304.5
0.000375405,18383.2
0.000375432,19552.6
0.00037546,20822.8
0.00037548700000000003,22205.4
0.00037551500000000004,23713.600000000002
0.00037554200000000003,25362.6
0.00037557000000000004,27170.5
0.00037559800000000005,29157.7
0.00037562500000000004,31348.4
0.00037565200000000003,33770.6
0.000375677,36105.8
0.00037570100000000004,38668.9
0.00037572500000000004,41489.1
0.00037574900000000004,44599.700000000004
0.00037577300000000004,48039.50000000001
0.000375797,51852.0
0.00037581500000000005,54986.100000000006
0.000375833,58381.5
0.000375855,62986.899999999994
0.00037587600000000003,67677.1
0.00037589700000000004,72837.9
0.000375917,78523.0
0.00037593800000000003,84791.4
0.000375958,91707.90000000001
0.000375979,99343.6
0.000375995,105589.0
0.00037601,112317.0
0.00037602699999999997,120405.0
0.000376044,129190.0
0.000376062,138730.0
0.00037607900000000003,149084.0
0.000376096,160318.0
0.000376113,172496.0
0.00037613,185691.0
0.000376147,199970.0
0.00037616500000000003,215411.99999999997
0.000376182,232089.0
0.000376199,250078.99999999997
0.000376216,269456.0
0.000376233,290301.0
0.00037625099999999997,312685.0
0.000376268,336685.0
0.000376285,362368.0
0.000376307,397234.0
0.000376328,434999.0
0.00037635,475772.0
0.00037637200000000003,519632.99999999994
0.00037639300000000004,566647.0
0.00037642000000000003,628425.0
0.000376449,701220.0
0.000376478,779513.0
0.000376505,858954.9999999999
0.000376532,942791.0000000001
0.000376574,1.0757e6
0.000376629,1.26271e6
0.00037672500000000006,1.59622e6
0.000376766,1.7317e6
0.000376807,1.85666e6
0.000376849,1.96689e6
0.000376876,2.0302600000000002e6
0.000376904,2.08433e6
0.00037693400000000005,2.13202e6
0.00037696400000000003,2.16647e6
0.000376998,2.18848e6
0.00037702300000000004,2.19327e6
0.000377052,2.18649e6
0.00037708200000000005,2.16592e6
0.000377112,2.1321e6
0.000377132,2.10256e6
0.00037716500000000005,2.0422799999999998e6
0.00037719800000000003,1.96921e6
0.000377237,1.87025e6
0.000377275,1.75956e6
0.00037731900000000004,1.62299e6
0.000377445,1.21268e6
0.00037749,1.07458e6
0.00037752500000000003,974152.0
0.000377559,879813.0
0.00037758500000000005,813452.0
0.00037761100000000003,751055.0
0.000377634,697979.0
0.000377657,648254.0
0.000377681,601855.0
0.00037770400000000003,558723.0
0.000377727,518763.00000000006
0.000377751,481864.0
0.00037777400000000005,447888.0
0.000377798,416686.0
0.000377821,388295.0
0.000377844,362316.0
0.000377867,338583.0
0.00037789000000000003,316931.0
0.00037791400000000003,297196.0
0.000377937,279222.0
0.00037796,262858.0
0.00037798300000000003,247961.0
0.000378006,234395.0
0.00037803,222034.99999999997
0.000378054,210366.0
0.000378079,199029.0
0.000378105,188766.0
0.00037813100000000003,179459.0
0.000378165,168349.0
0.00037820000000000003,158523.0
0.000378234,149793.0
0.000378268,141999.0
0.000378303,135005.0
0.000378344,127509.99999999999
0.000378368,123530.99999999999
0.000378416,116314.0
0.000378464,109940.0
0.000378513,104268.0
0.000378561,99185.8
0.000378609,94605.4
0.000378657,90454.6
0.000378705,86675.40000000001
0.00037877500000000003,81713.6
0.000378846,77326.7
0.00037891600000000003,73420.7
0.000378987,69921.7
0.000379057,66770.0
0.000379128,63917.5
0.000379234,60114.299999999996
0.00037931200000000003,57613.0
0.00037939800000000003,55124.6
0.000379527,51824.5
0.000379655,48956.0
0.000379784,46441.8
0.000379913,44221.6
0.00038004200000000003,42248.200000000004
0.00038012800000000003,41050.700000000004
0.00038030000000000003,38897.6
0.000380472,37017.6
0.000380644,35363.2
0.000380807,33966.3
0.000381052,32133.9
0.000381297,30559.1
0.000381542,29192.5
0.000381787,27996.4
0.00038203600000000004,26924.0
0.00038229400000000004,25942.6
0.00038263800000000003,24800.8
0.000382981,23814.5
0.000383325,22954.4
0.000383737,22057.699999999997
0.00038415,21281.3
0.000384563,20603.1
0.000384975,20004.8
0.000385594,19228.8
0.00038621200000000004,18570.100000000002
0.000386831,18004.2
0.00038775900000000005,17290.2
0.00038868800000000004,16700.4
0.000389616,16204.8
0.00039054400000000005,15782.199999999999
0.000391781,15306.800000000001
0.000393087,14888.4
0.00039446200000000005,14517.500000000002
0.00039652500000000006,14060.900000000001
0.0003979,13806.6
0.00040065,13384.8
0.0004034,13046.599999999999
0.0004067,12716.300000000001
0.00041096899999999996,12371.2
0.00041650400000000005,12012.300000000001
0.00042375000000000003,11631.499999999998
0.000435898,11101.6
0.00045345000000000004,10366.4
0.00046156100000000004,9960.15
0.0004658400000000001,9701.93
0.000469935,9404.87
0.00047256,9175.59
0.00047508,8912.32
0.00047697000000000006,8676.19
0.00047886,8392.71
0.00048012,8168.1
0.00048138,7905.45
0.00048243,7648.76
0.00048348000000000005,7347.0599999999995
0.00048426700000000003,7083.3
0.000485055,6779.07
0.00048577700000000006,6456.419999999999
0.00048636700000000003,6154.94
0.000486958,5814.07
0.00048741800000000004,5518.5599999999995
0.000487943,5147.55
0.000488992,4345.7699999999995
0.0004892550000000001,4167.96
0.000489413,4080.3599999999997
0.00048957,4016.89
0.0004896880000000001,3992.42
0.000489728,3990.02
0.0004898060000000001,3995.82
0.000489898,4024.1300000000006
0.000489989,4081.0899999999997
0.00049005,4138.9800000000005
0.000490111,4216.25
0.000490171,4316.6
0.000490232,4444.530000000001
0.000490278,4561.91
0.000490323,4700.8
0.000490369,4864.650000000001
0.0004904080000000001,5031.49
0.000490445,5209.05
0.000490482,5411.72
0.000490519,5643.28
0.0004905560000000001,5908.22
0.000490592,6204.7699999999995
0.000490627,6528.11
0.000490661,6897.400000000001
0.000490686,7193.61
0.000490712,7543.64
0.0004907409999999999,7972.33
0.000490764,8368.890000000001
0.0004907930000000001,8904.78
0.0004908170000000001,9402.97
0.0004908380000000001,9897.199999999999
0.00049086,10442.1
0.000490881,11043.7
0.000490905,11817.7
0.000490926,12542.5
0.000490947,13344.1
0.000490964,14055.800000000001
0.00049098,14829.5
0.0004909970000000001,15671.0
0.000491014,16587.0
0.000491032,17707.9
0.000491051,18941.600000000002
0.00049107,20300.2
0.000491089,21796.899999999998
0.000491107,23446.1
0.0004911270000000001,25330.4
0.000491146,27451.0
0.000491166,29799.000000000004
0.000491186,32398.2
0.000491205,35273.4
0.0004912250000000001,38452.2
0.000491245,41963.600000000006
0.0004912639999999999,45838.799999999996
0.000491284,50110.6
0.000491304,54813.9
0.0004913230000000001,59984.9
0.000491343,65662.8
0.0004913630000000001,71886.0
0.000491383,78695.8
0.000491402,86133.6
0.000491422,94242.1
0.000491442,103063.0
0.000491461,112640.99999999999
0.000491481,123014.0
0.000491501,134225.0
0.00049152,146312.0
0.00049154,159311.0
0.00049156,173255.0
0.000491579,188174.0
0.000491599,204090.99999999997
0.0004916190000000001,221027.0
0.0004916450000000001,245214.0
0.0004916710000000001,271246.0
0.0004916979999999999,299111.0
0.000491717,321188.0
0.0004917430000000001,352143.0
0.000491777,394493.0
0.0004918110000000001,439295.0
0.000491854,498434.00000000006
0.00049193,609998.0
0.00049201,725858.0
0.000492054,786118.0
0.0004920980000000001,841381.9999999999
0.0004921330000000001,880138.0
0.000492166,912018.9999999999
0.000492198,938907.0
0.000492233,961478.0
0.000492269,977898.0000000001
0.000492304,986477.0
0.000492324,988048.0
0.000492358,985196.0
0.0004923870000000001,977584.0
0.000492413,966161.9999999999
0.000492451,943404.0
0.000492481,920725.0
0.0004925099999999999,894115.0
0.000492544,859460.0
0.000492577,820975.9999999999
0.000492619,768653.0
0.000492687,677344.0
0.000492784,545408.0
0.000492838,475702.0
0.000492873,431825.0
0.000492909,390486.0
0.000492935,361871.0
0.0004929610000000001,334850.0
0.000492988,309468.0
0.000493014,285743.0
0.00049304,263669.0
0.000493067,243224.99999999997
0.000493093,224366.00000000003
0.000493119,207039.00000000003
0.0004931450000000001,191174.0
0.0004931720000000001,176697.0
0.000493198,163525.0
0.000493224,151575.0
0.00049325,140756.0
0.000493277,130982.0
0.000493303,122166.0
0.000493329,114225.0
0.0004933580000000001,106488.0
0.0004933860000000001,99592.6
0.000493415,93447.6
0.000493443,87969.2
0.0004934720000000001,83080.3
0.0004935,78711.5
0.000493529,74800.1
0.000493557,71290.6
0.0004935860000000001,68133.0
0.000493614,65284.00000000001
0.0004936480000000001,62313.0
0.00049369,58966.3
0.000493732,56039.8
0.000493775,53460.5
0.000493817,51169.700000000004
0.000493859,49120.4
0.0004939160000000001,46698.899999999994
0.0004939720000000001,44569.6
0.000494029,42679.4
0.000494085,40987.600000000006
0.0004941510000000001,39228.5
0.000494216,37657.1
0.000494315,35588.700000000004
0.0004944130000000001,33802.0
0.000494512,32242.3
0.00049461,30868.8
0.000494708,29649.899999999998
0.0004948070000000001,28561.0
0.000494938,27277.999999999996
0.000495069,26155.1
0.000495201,25164.300000000003
0.0004953970000000001,23879.100000000002
0.000495594,22787.1
0.000495791,21848.0
0.000495988,21032.199999999997
0.000496185,20317.0
0.000496447,19490.5
0.00049671,18781.1
0.0004969730000000001,18165.6
0.000497235,17626.6
0.000497576,17018.6
0.0004979180000000001,16495.3
0.000498429,15833.4
0.000498862,15362.800000000001
0.000499388,14877.0
0.000499912,14463.999999999998
0.0005007,13947.8
0.000501487,13524.6
0.000502275,13170.1
0.000503168,12831.2
0.00050427,12481.199999999999
0.0005057400000000001,12099.2
0.00050721,11786.2
0.000509357,11413.3
0.000511389,11123.300000000001
0.000514456,10759.4
0.0005179630000000001,10412.1
0.0005231130000000001,9975.16
0.000542512,8510.85
0.0005477730000000001,8074.95
0.0005530330000000001,7593.47
0.00055654,7238.39
0.000560047,6848.61
0.000563554,6416.280000000001
0.000566184,6058.37
0.0005688150000000001,5666.29
0.0005712989999999999,5259.62
0.00057349,4867.66
0.0005756820000000001,4439.29
0.000577144,4131.78
0.000578605,3805.44
0.000580066,3459.5
0.000581527,3093.74
0.000582989,2709.0299999999997
0.000584815,2206.2200000000003
0.000587153,1551.1399999999999
0.000587939,1339.04
0.000588578,1175.19
0.000588961,1082.46
0.000589345,995.2270000000001
0.000589729,914.8009999999999
0.0005900030000000001,862.4090000000001
0.000590295,812.068
0.0005905140000000001,778.634
0.0005907330000000001,749.4
0.000590952,724.869
0.000591172,705.605
0.000591318,695.995
0.0005914640000000001,689.207
0.000591642,685.068
0.000591706,684.765
0.000591866,686.937
0.000592037,694.2339999999999
0.000592167,703.4989999999999
0.000592331,720.176
0.0005924820000000001,740.7280000000001
0.000592624,764.997
0.0005927419999999999,789.3309999999999
0.000592861,817.543
0.000592998,855.2379999999999
0.0005931440000000001,901.964
0.0005932540000000001,941.7389999999999
0.000593382,993.628
0.000593519,1056.23
0.000593656,1126.62
0.000593765,1188.95
0.000593875,1256.97
0.000593985,1331.04
0.0005940940000000001,1411.53
0.0005942310000000001,1521.78
0.000594368,1643.55
0.0005945050000000001,1777.74
0.000594642,1925.36
0.000594779,2087.52
0.000594916,2265.42
0.000595053,2460.3700000000003
0.00059519,2673.82
0.000595327,2907.35
0.0005954640000000001,3162.71
0.0005956010000000001,3441.81
0.000595738,3746.75
0.000595875,4079.86
0.000596012,4443.679999999999
0.000596149,4841.04
0.000596286,5275.0599999999995
0.000596418,5729.45
0.000596549,6224.2699999999995
0.000596681,6763.33
0.0005968120000000001,7350.86
0.000596944,7991.59
0.000597075,8690.789999999999
0.0005972070000000001,9454.37
0.000597338,10288.900000000001
0.00059747,11201.9
0.000597601,12201.599999999999
0.000597733,13297.4
0.000597864,14500.1
0.000597996,15821.7
0.0005981270000000001,17275.899999999998
0.0005982590000000001,18878.399999999998
0.000598346,20037.899999999998
0.000598471,21818.9
0.000598591,23719.199999999997
0.000598712,25808.8
0.000598832,28111.0
0.000598953,30652.2
0.00059907,33373.7
0.000599179,36183.9
0.000599289,39276.0
0.000599398,42685.00000000001
0.000599508,46451.700000000004
0.000599618,50623.3
0.000599716,54769.50000000001
0.000599815,59334.6
0.000599914,64372.7
0.000600012,69946.2
0.000600111,76128.2
0.0006002010000000001,82415.40000000001
0.000600288,89041.9
0.000600375,96351.8
0.0006004609999999999,104437.0
0.0006005480000000001,113404.0
0.000600605,119933.0
0.000600662,126767.00000000001
0.000600718,134111.0
0.000600774,142013.0
0.00060083,150528.0
0.000600887,159718.0
0.000600943,169651.0
0.0006009990000000001,180406.0
0.000601056,192071.0
0.000601126,208040.0
0.000601196,225798.0
0.000601243,238757.00000000003
0.000601289,252712.0
0.000601336,267760.0
0.000601383,284008.0
0.00060143,301574.0
0.0006014910000000001,326855.0
0.0006015520000000001,354969.0
0.000601593,375473.0
0.000601634,397530.0
0.0006016750000000001,421275.0
0.000601716,446854.0
