E(MeV),xs(mb)
1.0e-11,66390.0
1.03223e-11,65359.6
1.06549e-11,64346.1
1.0998399999999998e-11,63348.4
1.13527e-11,62367.0
1.1718599999999999e-11,61400.9
1.2096199999999998e-11,60450.600000000006
1.24861e-11,59515.1
1.2888399999999999e-11,58595.0
1.3303799999999998e-11,57689.2
1.37325e-11,56798.3
1.41751e-11,55921.3
1.4631799999999997e-11,55058.7
1.51034e-11,54209.7
1.5590099999999998e-11,53374.6
1.6092599999999998e-11,52552.6
1.66111e-11,51744.1
1.71465e-11,50948.3
1.7699e-11,50165.6
1.8269399999999998e-11,49395.2
1.88581e-11,48637.6
1.94659e-11,47891.899999999994
2.00931e-11,47158.4
2.0740699999999998e-11,46436.6
2.1408999999999998e-11,45726.7
2.2099099999999997e-11,45028.1
2.28111e-11,44341.0
2.3546399999999998e-11,43664.8
2.4305099999999997e-11,42999.799999999996
2.50884e-11,42345.4
2.5896799999999997e-11,41701.9
2.67315e-11,41068.6
2.75928e-11,40445.799999999996
2.8482199999999998e-11,39833.1
2.93999e-11,39230.4
3.0347499999999995e-11,38637.5
3.13253e-11,38054.4
3.2335e-11,37480.799999999996
3.33769e-11,36916.7
3.44526e-11,36361.7
3.55627e-11,35816.0
3.67089e-11,35279.1
3.7891799999999997e-11,34751.2
3.9113e-11,34231.9
4.0373400000000003e-11,33721.4
4.1674599999999996e-11,33219.1
4.3017399999999996e-11,32725.300000000003
4.440389999999999e-11,32239.6
4.58347e-11,31762.100000000002
4.7311899999999994e-11,31292.5
4.883639999999999e-11,30830.7
5.0410399999999995e-11,30376.699999999997
5.20348e-11,29930.3
5.37119e-11,29491.3
5.54426e-11,29059.8
5.7229499999999995e-11,28635.4
5.907359999999999e-11,28218.399999999998
6.09775e-11,27808.3
6.29424e-11,27405.2
6.497099999999999e-11,27008.899999999998
6.70645e-11,26619.4
6.9226e-11,26236.5
7.145659999999999e-11,25860.2
7.37596e-11,25490.300000000003
7.61364e-11,25126.8
7.85902e-11,24769.5
8.129459999999999e-11,24395.3
8.4092e-11,24027.9
8.69858e-11,23667.3
8.997899999999999e-11,23313.5
9.307529999999999e-11,22966.199999999997
9.627809999999999e-11,22625.4
9.95912e-11,22291.0
1.03019e-10,21962.8
1.06564e-10,21640.899999999998
1.10231e-10,21325.0
1.1402399999999999e-10,21015.199999999997
1.1794700000000002e-10,20711.2
1.22006e-10,20413.100000000002
1.2620400000000002e-10,20120.6
1.30547e-10,19833.8
1.3504e-10,19552.5
1.39686e-10,19276.7
1.44493e-10,19006.3
1.49465e-10,18741.1
1.5460900000000001e-10,18481.1
1.5992900000000003e-10,18226.3
1.65432e-10,17976.399999999998
1.71125e-10,17731.600000000002
1.77014e-10,17491.600000000002
1.83105e-10,17256.4
1.89406e-10,17026.0
1.95923e-10,16800.2
2.0266500000000002e-10,16578.9
2.09639e-10,16362.2
2.16853e-10,16149.9
2.24789e-10,15929.199999999999
2.33017e-10,15713.2
2.41545e-10,15502.0
2.5038700000000003e-10,15295.5
2.5955e-10,15093.6
2.69051e-10,14896.1
2.78897e-10,14703.1
2.89106e-10,14514.499999999998
2.99687e-10,14330.099999999999
3.10657e-10,14149.9
3.2202600000000004e-10,13973.9
3.3381300000000003e-10,13801.9
3.4603000000000004e-10,13633.900000000001
3.5869600000000003e-10,13469.7
3.72612e-10,13300.099999999999
3.87067e-10,13134.699999999999
4.0208300000000005e-10,12973.4
4.17682e-10,12816.099999999999
4.3388600000000006e-10,12662.800000000001
4.5071899999999996e-10,12513.300000000001
4.68204e-10,12367.699999999999
4.863679999999999e-10,12225.699999999999
5.05237e-10,12087.4
5.25947e-10,11945.2
5.47509e-10,11806.9
5.69952e-10,11672.400000000001
5.933180000000001e-10,11541.5
6.176389999999999e-10,11414.3
6.4296e-10,11290.500000000002
6.69316e-10,11170.199999999999
6.982280000000001e-10,11047.1
7.2839e-10,10927.6
7.598550000000001e-10,10811.599999999999
7.92678e-10,10699.0
8.2692e-10,10589.699999999999
8.644690000000001e-10,10478.400000000001
9.037190000000002e-10,10370.5
9.44755e-10,10266.0
9.8765e-10,10164.7
1.0325000000000001e-9,10066.5
1.0816600000000002e-9,9966.85
1.1331700000000001e-9,9870.45
1.18713e-9,9777.150000000001
1.24366e-9,9686.859999999999
1.30564e-9,9595.57
1.3707100000000001e-9,9507.33
1.43901e-9,9422.04
1.5139300000000002e-9,9336.08
1.5927400000000002e-9,9253.09
1.67565e-9,9172.97
1.7666200000000003e-9,9092.44
1.86252e-9,9014.789999999999
1.96363e-9,8939.9
2.07461e-9,8864.82
2.1918600000000003e-9,8792.5
2.32063e-9,8720.2
2.4569800000000003e-9,8650.61
2.6068500000000004e-9,8581.210000000001
2.76585e-9,8514.49
2.9407500000000002e-9,8448.1
3.12674e-9,8384.34
3.3315100000000002e-9,8321.04
3.5496900000000004e-9,8260.300000000001
3.79016e-9,8200.12
4.0469400000000005e-9,8142.429999999999
4.330250000000001e-9,8085.380000000001
4.643200000000001e-9,8029.080000000001
4.9787800000000005e-9,7975.23
5.3499e-9,7922.18
5.76085e-9,7870.009999999999
6.2033800000000006e-9,7820.21
6.694040000000001e-9,7771.33
7.2387800000000005e-9,7723.429999999999
7.84444e-9,7676.57
8.51878e-9,7630.82
9.27066e-9,7586.23
1.01102e-8,7542.82
1.10492e-8,7500.650000000001
1.2101e-8,7459.72
1.3280799999999999e-8,7420.07
1.4606600000000001e-8,7381.71
1.60988e-8,7344.65
1.78185e-8,7308.16
1.97638e-8,7273.049999999999
2.19678e-8,7239.33
2.4521099999999997e-8,7206.37
2.52522e-8,7197.9
2.5299999999999998e-8,7197.36
2.83603e-8,7165.8
3.1925400000000005e-8,7135.16
3.6091e-8,7105.49
4.0973100000000004e-8,7076.86
4.67127e-8,7049.33
5.3482e-8,7022.910000000001
6.149180000000001e-8,6997.63
7.11513e-8,6973.18
8.285180000000001e-8,6949.63
9.70902e-8,6927.07
1.145e-7,6905.52
1.36178e-7,6884.79
1.63337e-7,6864.969999999999
1.9757499999999997e-7,6846.12
2.4153199999999997e-7,6828.09
2.98406e-7,6810.9400000000005
3.73379e-7,6794.570000000001
4.7415399999999995e-7,6778.900000000001
6.11109e-7,6763.94
8.01059e-7,6749.570000000001
1.0721e-6,6735.509999999999
2.23691e-6,6703.69
8.76754e-6,6632.21
4.5158600000000005e-5,6376.0599999999995
0.00011707700000000002,5935.76
0.00016769700000000002,5650.78
0.00016983,5646.099999999999
0.000171711,5655.59
0.000172684,5680.06
0.000173342,5724.490000000001
0.00017377800000000003,5791.24
0.000174023,5862.599999999999
0.000174183,5938.85
0.000174295,6019.75
0.00017440800000000003,6140.85
0.000174477,6246.74
0.00017454000000000002,6374.31
0.000174603,6542.709999999999
0.00017465,6703.929999999999
0.000174697,6902.650000000001
0.000174744,7146.620000000001
0.00017479100000000001,7444.14
0.00017483800000000002,7803.73
0.00017486900000000002,8081.950000000001
0.000174901,8393.5
0.000174932,8740.130000000001
0.00017497400000000002,9261.77
0.000175014,9812.89
0.000175053,10421.6
0.00017510600000000001,11316.5
0.000175148,12100.1
0.00017524900000000002,14066.8
0.000175324,15529.1
0.000175374,16422.8
0.000175412,17020.2
0.00017544900000000002,17535.8
0.000175487,17954.1
0.000175525,18262.100000000002
0.000175567,18465.800000000003
0.000175599,18512.1
0.00017563800000000001,18445.899999999998
0.000175663,18331.5
0.000175697,18091.3
0.00017573000000000003,17758.3
0.00017577100000000002,17255.4
0.000175811,16651.8
0.000175861,15786.500000000002
0.00017593600000000002,14345.300000000001
0.00017603800000000002,12346.2
0.00017609,11369.7
0.000176137,10573.4
0.00017617700000000002,9942.9
0.000176217,9371.0
0.000176257,8859.39
0.00017629300000000003,8454.029999999999
0.000176324,8136.16
0.00017635600000000002,7851.81
0.000176403,7483.54
0.00017645,7178.09
0.00017649700000000001,6927.05
0.000176544,6722.12
0.00017659100000000003,6555.54
0.00017665400000000002,6381.2
0.00017671600000000002,6248.88
0.000176779,6147.62
0.000176861,6049.03
0.00017698300000000002,5946.71
0.00017710500000000002,5877.259999999999
0.000177293,5805.679999999999
0.000177607,5734.29
0.000178077,5676.7300000000005
0.00017898700000000003,5625.37
0.000181057,5581.71
0.00018962000000000002,5512.74
0.000214142,5338.05
0.000218999,5308.18
0.00022031600000000002,5320.24
0.00022088,5342.96
0.000221357,5390.49
0.00022157300000000003,5434.45
0.00022174600000000001,5494.06
0.000221846,5548.110000000001
0.00022194600000000002,5626.95
0.00022202099999999998,5710.91
0.000222078,5793.53
0.00022214,5911.37
0.00022220300000000003,6064.05
0.000222266,6260.379999999999
0.000222313,6441.99
0.00022235999999999998,6657.54
0.00022240700000000004,6910.8
0.00022245400000000002,7204.95
0.00022250100000000003,7542.21
0.000222548,7923.45
0.000222608,8474.01
0.000222668,9087.98
0.00022273399999999999,9808.76
0.00022288400000000002,11535.1
0.00022293400000000002,12067.8
0.000222984,12546.1
0.00022302900000000002,12913.9
0.00022307000000000002,13180.099999999999
0.00022310800000000002,13373.4
0.00022314400000000002,13497.8
0.000223181,13561.2
0.00022319900000000002,13569.3
0.000223243,13523.099999999999
0.00022329,13374.1
0.00022333,13170.0
0.00022337099999999999,12901.1
0.00022342100000000001,12485.800000000001
0.00022347100000000004,11999.1
0.00022354599999999998,11178.300000000001
0.00022367100000000002,9731.550000000001
0.000223743,8948.650000000001
0.000223797,8408.99
0.00022384400000000003,7971.849999999999
0.000223889,7601.73
0.000223934,7271.13
0.00022397800000000003,6979.599999999999
0.000224023,6725.53
0.00022406799999999998,6502.889999999999
0.00022411500000000002,6307.25
0.00022416200000000003,6142.98
0.00022420900000000003,6006.05
0.000224272,5859.25
0.000224354,5716.77
0.00022440400000000002,5649.99
0.000224504,5550.59
0.000224604,5482.55
0.000224775,5408.070000000001
0.000224987,5352.71
0.000225269,5307.62
0.000225739,5263.67
0.000226774,5214.17
0.000228592,5169.49
0.000229867,5156.28
0.00023065600000000004,5165.24
0.000231315,5198.37
0.000231676,5237.15
0.00023203800000000003,5303.45
0.000232285,5374.76
0.00023253200000000003,5480.65
0.00023269700000000003,5580.49
0.00023284500000000002,5699.97
0.00023295599999999998,5815.22
0.00023306700000000002,5960.73
0.00023317800000000004,6148.030000000001
0.00023325200000000004,6304.719999999999
0.00023331400000000004,6461.21
0.00023338800000000004,6689.77
0.000233437,6873.96
0.000233486,7090.72
0.000233536,7348.18
0.00023358500000000002,7656.7
0.000233622,7929.48
0.00023365900000000002,8245.240000000002
0.00023370000000000004,8656.5
0.00023373300000000002,9039.910000000002
0.00023376600000000002,9480.25
0.000233799,9986.62
0.000233832,10569.4
0.000233857,11063.400000000001
0.00023388100000000002,11612.3
0.000233906,12221.699999999999
0.000233931,12897.8
0.00023395500000000002,13647.199999999999
0.00023398,14476.6
0.00023400500000000002,15393.4
0.00023402900000000002,16404.8
0.000234054,17518.5
0.00023407900000000002,18742.2
0.00023410300000000002,20083.5
0.00023412799999999998,21549.999999999996
0.00023415300000000002,23148.8
0.000234177,24886.8
0.00023420200000000003,26770.399999999998
0.00023422200000000002,28441.100000000002
0.000234247,30573.899999999998
0.000234271,32860.7
0.00023429500000000003,35303.8
0.00023432,37903.9
0.00023435600000000002,42096.0
0.000234393,46628.7
0.000234422,50406.4
0.000234454,54972.3
0.00023450400000000002,62205.6
0.00023457599999999998,73386.0
0.00023466300000000003,86967.09999999999
0.000234726,96309.5
0.000234774,102674.0
0.00023481600000000002,107678.0
0.00023485500000000001,111681.99999999999
0.000234895,114919.0
0.000234936,117402.99999999999
0.00023497400000000002,118792.00000000001
0.000235011,119313.0
0.000235018,119317.0
0.00023504900000000003,118966.0
0.00023508,118062.0
0.00023511099999999998,116582.00000000001
0.000235142,114518.00000000001
0.000235174,111931.0
0.00023520500000000002,108868.00000000001
0.000235242,104761.0
0.00023528400000000002,99475.8
0.00023533200000000002,92949.59999999999
0.000235411,81263.7
0.00023550300000000003,67420.7
0.000235553,60180.8
0.00023559,55100.0
0.00023562800000000001,50296.3
0.00023566500000000003,45802.2
0.00023569700000000002,42189.6
0.000235729,38830.8
0.00023576100000000002,35727.9
0.000235793,32878.799999999996
0.000235825,30277.0
0.00023584900000000002,28482.8
0.00023587300000000002,26817.899999999998
0.000235897,25277.0
0.00023592100000000002,23854.1
0.000235946,22510.6
0.00023597100000000002,21277.9
0.00023599500000000002,20148.8
0.00023602,19116.1
0.00023604500000000002,18173.0
0.00023606900000000002,17312.5
0.000236102,16282.6
0.000236135,15373.1
0.00023616799999999998,14570.2
0.000236203,13828.1
0.000236239,13147.3
0.00023627500000000004,12551.8
0.00023631099999999998,12029.8
0.00023634800000000002,11570.6
0.00023638400000000002,11165.199999999999
0.00023643800000000003,10641.199999999999
0.00023649,10218.0
0.00023653700000000002,9887.230000000001
0.00023659900000000002,9507.949999999999
0.00023666200000000003,9185.0
0.00023672399999999998,8906.57
0.00023681800000000002,8553.76
0.000236912,8260.619999999999
0.00023701500000000003,7989.04
0.000237139,7720.16
0.00023726200000000002,7496.39
0.00023738600000000002,7307.36
0.00023755000000000003,7096.92
0.000237715,6923.0
0.000237962,6712.63
0.00023820800000000003,6546.48
0.00023855400000000003,6365.57
0.000238949,6209.29
0.000239344,6089.31
0.000239837,5973.81
0.000240331,5884.64
0.000241022,5789.3
0.000242108,5683.07
0.000243424,5595.349999999999
0.00024474,5533.08
0.00024737300000000006,5448.629999999999
0.000251848,5360.66
0.000259219,5270.54
0.00027425,5145.38
0.000341393,4683.379999999999
0.00036981300000000003,4458.76
0.000389193,4280.29
0.00040754500000000004,4081.9599999999996
0.000419989,3933.57
0.00042246499999999996,3917.52
0.0004234810000000001,3924.95
0.000424211,3948.9
0.000424624,3980.8599999999997
0.000424941,4028.6600000000003
0.00042510000000000003,4069.2500000000005
0.000425259,4132.21
0.00042535600000000005,4189.3
0.0004254540000000001,4267.91
0.000425552,4377.11
0.00042561700000000004,4472.75
0.00042568200000000004,4591.68
0.000425747,4738.900000000001
0.00042581100000000006,4917.51
0.000425859,5074.45
0.000425906,5255.0
0.00042595400000000004,5461.5
0.00042600200000000003,5696.16
0.000426049,5960.96
0.00042609700000000006,6257.5599999999995
0.000426145,6587.12
0.000426192,6950.24
0.00042622400000000006,7210.91
0.0004262870000000001,7775.69
0.00042634100000000006,8298.51
0.00042642200000000003,9145.83
0.00042653600000000004,10417.6
0.00042665800000000006,11806.9
0.000426734,12615.8
0.00042680999999999996,13336.4
0.000426859,13730.199999999999
0.0004269040000000001,14049.1
0.00042696300000000004,14369.5
0.000427016,14566.6
0.000427067,14669.2
0.00042709900000000007,14686.999999999998
0.000427144,14652.0
0.00042719100000000005,14539.2
0.00042724500000000003,14323.5
0.0004273030000000001,13986.199999999999
0.00042736900000000003,13491.5
0.000427445,12797.199999999999
0.000427522,12005.5
0.000427642,10645.800000000001
0.00042776800000000003,9225.300000000001
0.00042783800000000005,8476.25
0.00042789400000000006,7927.21
0.00042795699999999997,7345.13
0.000428005,6945.96
0.00042805200000000005,6580.0599999999995
0.0004281,6247.61
0.00042814800000000005,5948.08
0.00042819500000000003,5680.3
0.00042824299999999997,5442.69
0.00042829,5233.25
0.00042833800000000006,5049.8099999999995
0.000428398,4853.54
0.000428453,4699.68
0.00042850900000000004,4570.389999999999
0.000428564,4462.22
0.000428648,4332.71
0.000428731,4234.29
0.00042881400000000007,4159.32
0.000428933,4081.2799999999997
0.000429052,4026.35
0.00042921100000000003,3975.24
0.000429449,3924.9
0.000429798,3878.6200000000003
0.000430465,3827.42
0.000431417,3785.55
0.00043370300000000007,3725.2200000000003
0.00044532700000000003,3490.83
0.00045588100000000005,3251.69
0.000457145,3234.62
0.000457587,3234.58
0.000458251,3249.92
0.00045862999999999996,3278.18
0.00045886699999999996,3314.33
0.00045902500000000006,3355.47
0.0004591370000000001,3399.4300000000003
0.000459237,3454.38
0.00045933599999999997,3531.06
0.00045940300000000005,3598.52
0.000459469,3682.79
0.000459535,3787.71
0.00045960200000000004,3917.62
0.000459655,4044.37
0.00045971700000000006,4217.31
0.000459779,4423.66
0.00045984,4667.51
0.00045990200000000004,4952.57
0.00045996400000000004,5281.96
0.000460011,5566.88
0.000460058,5879.74
0.000460122,6340.09
0.000460185,6847.76
0.00046024300000000005,7352.8
0.000460323,8093.18
0.000460555,10372.8
0.000460631,11062.4
0.00046070700000000003,11674.7
0.000460778,12150.5
0.00046083800000000004,12468.300000000001
0.0004608990000000001,12691.6
0.00046095,12800.7
0.000460999,12834.4
0.00046104399999999997,12804.3
0.000461091,12709.3
0.000461152,12496.400000000001
0.000461205,12231.099999999999
0.000461273,11793.499999999998
0.000461349,11200.5
0.00046142500000000006,10522.800000000001
0.000461541,9389.11
0.00046168500000000004,7965.45
0.00046176500000000005,7225.87
0.00046182800000000006,6680.37
0.00046189099999999997,6178.78
0.000461938,5833.85
0.000461986,5516.67
0.000462038,5199.950000000001
0.00046209,4916.36
0.00046214199999999997,4664.65
0.0004621940000000001,4443.04
0.000462247,4249.38
0.000462296,4090.79
0.000462359,3916.1600000000003
0.00046242200000000004,3771.1899999999996
0.00046248500000000006,3651.58
0.00046254799999999996,3553.3100000000004
0.00046261200000000005,3472.77
0.00046270600000000007,3378.37
0.000462817,3298.06
0.00046295900000000004,3226.36
0.000463101,3176.8
0.000463338,3121.09
0.00046367800000000003,3069.3700000000003
0.000464128,3022.79
0.000464729,2977.6600000000003
0.00046589,2912.39
0.00046744300000000006,2846.2900000000004
0.00046822700000000004,2824.1
0.00046885000000000004,2817.59
0.000469445,2829.0
0.00046979100000000006,2849.38
0.00047013700000000003,2886.43
0.00047040600000000004,2932.65
0.00047059900000000004,2979.16
0.000470791,3041.25
0.000470935,3101.41
0.00047107900000000006,3176.9599999999996
0.000471223,3272.77
0.00047131900000000005,3351.29
0.00047141500000000004,3444.88
0.00047151100000000003,3557.57
0.000471607,3694.98
0.00047167899999999997,3818.93
0.0004717520000000001,3965.75
0.000471824,4141.47
0.00047188,4305.13
0.000471929,4468.73
0.000471978,4656.92
0.000472027,4874.4
0.00047207600000000004,5126.7699999999995
0.00047212500000000005,5420.73
0.0004721580000000001,5643.65
0.00047219100000000006,5891.21
0.00047222299999999997,6166.38
0.000472256,6472.46
0.000472289,6813.049999999999
0.000472321,7192.15
0.000472354,7614.07
0.00047239000000000005,8127.420000000001
0.000472418,8589.53
0.000472447,9096.74
0.000472476,9653.119999999999
0.00047250500000000007,10262.800000000001
0.00047253400000000004,10930.4
0.000472563,11660.3
0.000472591,12457.6
0.00047262000000000004,13327.1
0.000472649,14273.9
0.000472678,15303.1
0.000472704,16304.4
0.00047273,17380.6
0.00047276400000000003,18938.3
0.00047279900000000004,20644.6
0.000472833,22507.600000000002
0.000472868,24535.100000000002
0.000472903,26734.0
0.00047293700000000004,29110.100000000002
0.00047297,31521.2
0.000473001,33941.3
0.00047303100000000006,36508.7
0.00047307800000000004,40635.899999999994
0.000473124,45089.3
0.00047317,49855.600000000006
0.00047322,55348.0
0.0004732770000000001,62060.899999999994
0.000473354,71502.40000000001
0.000473539,94922.2
0.000473616,104153.0
0.00047368,111254.00000000001
0.00047374200000000003,117243.99999999999
0.000473788,121130.0
0.000473834,124421.0
0.00047388199999999996,127172.0
0.00047393500000000004,129296.00000000001
0.000473982,130349.0
0.00047402600000000006,130647.0
0.00047406499999999997,130333.00000000001
0.000474106,129407.0
0.00047414800000000003,127889.00000000001
0.00047420299999999997,124986.0
0.000474264,120678.0
0.00047430700000000004,117057.00000000001
0.000474357,112393.00000000001
0.000474406,107256.0
0.00047446700000000006,100319.0
0.00047456699999999996,88294.8
0.000474709,71026.9
0.000474787,61933.4
0.000474839,56216.2
0.00047489200000000003,50833.399999999994
0.00047493000000000004,47109.1
0.00047496900000000005,43593.5
0.000475007,40292.0
0.000475045,37207.0
0.000475084,34337.7
0.000475122,31680.899999999998
0.00047516100000000004,29231.3
0.00047519900000000004,26981.600000000002
0.000475238,24923.1
0.00047527600000000006,23046.000000000004
0.00047531400000000006,21339.800000000003
0.000475353,19793.4
0.00047539100000000003,18395.300000000003
0.00047543,17134.2
0.000475468,15998.9
0.000475507,14978.3
0.00047554800000000006,13986.400000000001
0.00047558999999999996,13105.199999999999
0.000475632,12322.5
0.000475674,11627.400000000001
0.000475716,11009.800000000001
0.00047575700000000005,10460.400000000001
0.00047579900000000006,9971.06
0.00047584099999999996,9534.3
0.00047588299999999997,9143.55
0.000475925,8793.05
0.00047597300000000003,8429.91
0.00047603500000000003,8024.150000000001
