E(MeV),xs(mb)
1.0e-11,1.03495e6
1.03223e-11,1.0186599999999999e6
1.06549e-11,1.00264e6
1.0998399999999998e-11,986866.0
1.13527e-11,971345.0
1.1718599999999999e-11,956062.0
1.2096199999999998e-11,941025.9999999999
1.24861e-11,926220.0
1.2888399999999999e-11,911652.9999999999
1.3303799999999998e-11,897310.0
1.37325e-11,883198.0
1.41751e-11,869303.0
1.4631799999999997e-11,855631.0
1.51034e-11,842170.0
1.5590099999999998e-11,828924.9999999999
1.6092599999999998e-11,815884.0
1.66111e-11,803053.0000000001
1.71465e-11,790420.0
1.7699e-11,777989.0
1.8269399999999998e-11,765750.0
1.88581e-11,753708.0
1.94659e-11,741851.0
2.00931e-11,730185.0
2.0740699999999998e-11,718699.0
2.1408999999999998e-11,707396.0
2.2099099999999997e-11,696269.0
2.28111e-11,685320.0
2.3546399999999998e-11,674540.0
2.4305099999999997e-11,663933.0
2.50884e-11,653490.0
2.5896799999999997e-11,643213.0
2.67315e-11,633096.0
2.75928e-11,623141.0
2.8482199999999998e-11,613340.0
2.93999e-11,603696.0
3.0347499999999995e-11,594202.0
3.13253e-11,584858.0
3.2335e-11,575660.0
3.33769e-11,566609.0
3.44526e-11,557698.0
3.55627e-11,548930.0
3.67089e-11,540297.0
3.7891799999999997e-11,531803.0
3.9113e-11,523440.0
4.0373400000000003e-11,515211.00000000006
4.1674599999999996e-11,507109.0
4.3017399999999996e-11,499137.0
4.440389999999999e-11,491289.0
4.58347e-11,483566.0
4.7311899999999994e-11,475962.99999999994
4.883639999999999e-11,468480.99999999994
5.0410399999999995e-11,461115.00000000006
5.20348e-11,453867.0
5.37119e-11,446732.0
5.54426e-11,439710.0
5.7229499999999995e-11,432796.99999999994
5.907359999999999e-11,425995.0
6.09775e-11,419299.0
6.29424e-11,412709.0
6.497099999999999e-11,406222.0
6.70645e-11,399838.0
6.9226e-11,393554.0
7.145659999999999e-11,387369.0
7.37596e-11,381281.0
7.61364e-11,375290.0
7.85902e-11,369392.0
8.11227e-11,363589.0
8.37372e-11,357875.0
8.643549999999999e-11,352253.0
8.922119999999998e-11,346718.0
9.209619999999999e-11,341271.0
9.506439999999999e-11,335910.0
9.81277e-11,330633.0
1.01291e-10,325438.0
1.04554e-10,320328.0
1.07924e-10,315295.0
1.11402e-10,310344.0
1.1499200000000001e-10,305469.0
1.1869700000000001e-10,300673.0
1.22523e-10,295950.0
1.26471e-10,291304.0
1.30547e-10,286729.0
1.34754e-10,282228.0
1.3909700000000002e-10,277797.0
1.43579e-10,273436.0
1.48207e-10,269143.0
1.52982e-10,264919.0
1.57913e-10,260761.00000000003
1.6300100000000001e-10,256669.0
1.68254e-10,252640.00000000003
1.73676e-10,248676.0
1.79274e-10,244774.0
1.8505000000000002e-10,240933.99999999997
1.91014e-10,237153.0
1.97169e-10,233433.0
2.03524e-10,229771.0
2.1008200000000003e-10,226168.0
2.16853e-10,222620.0
2.2384e-10,219130.0
2.31055e-10,215693.0
2.385e-10,212312.0
2.46187e-10,208983.0
2.5412e-10,205707.0
2.6231e-10,202482.0
2.70762e-10,199309.0
2.7948900000000003e-10,196185.0
2.88494e-10,193111.0
2.9779300000000004e-10,190085.0
3.07388e-10,187108.0
3.1729500000000004e-10,184176.0
3.27519e-10,181292.0
3.38075e-10,178453.0
3.4896900000000003e-10,175658.0
3.6021600000000004e-10,172908.0
3.7182300000000004e-10,170201.0
3.83807e-10,167537.0
3.96174e-10,164915.0
4.08943e-10,162334.0
4.2212e-10,159794.0
4.3572499999999996e-10,157294.0
4.4976500000000005e-10,154834.0
4.6426100000000007e-10,152412.0
4.79221e-10,150028.0
4.94666e-10,147682.0
5.10605e-10,145374.0
5.270620000000001e-10,143101.0
5.440450000000001e-10,140865.0
5.6158e-10,138663.0
5.796750000000001e-10,136497.0
5.98358e-10,134365.0
6.176389999999999e-10,132266.0
6.37545e-10,130200.0
6.58089e-10,128168.0
6.79298e-10,126167.0
7.01188e-10,124198.00000000001
7.237860000000001e-10,122259.0
7.47109e-10,120351.99999999999
7.71188e-10,118473.99999999999
7.960380000000001e-10,116626.99999999999
8.21693e-10,114808.0
8.48171e-10,113018.0
8.75507e-10,111256.0
9.037190000000002e-10,109522.00000000001
9.32845e-10,107816.0
9.62904e-10,106136.00000000001
9.93937e-10,104482.99999999999
1.0259700000000001e-9,102855.99999999999
1.05903e-9,101254.0
1.09316e-9,99678.40000000001
1.12839e-9,98127.0
1.16475e-9,96600.40000000001
1.2022900000000002e-9,95097.5
1.2410300000000002e-9,93618.7
1.28103e-9,92162.90000000001
1.3223100000000002e-9,90730.40000000001
1.36492e-9,89320.1
1.4089000000000002e-9,87932.40000000001
1.4543100000000001e-9,86566.4
1.5011699999999999e-9,85222.09999999999
1.5495600000000002e-9,83898.8
1.5994900000000002e-9,82596.5
1.6510400000000001e-9,81314.6
1.7042400000000001e-9,80053.2
1.75917e-9,78811.40000000001
1.81585e-9,77589.4
1.87438e-9,76386.5
1.9347700000000003e-9,75202.7
1.99713e-9,74037.4
2.06148e-9,72890.7
2.1279200000000002e-9,71761.9
2.19649e-9,70651.0
2.26728e-9,69557.5
2.3403400000000002e-9,68481.4
2.4157700000000002e-9,67422.1
2.49362e-9,66379.7
2.5739800000000002e-9,65353.6
2.65692e-9,64343.700000000004
2.7425500000000002e-9,63349.700000000004
2.8309300000000003e-9,62371.4
2.92217e-9,61408.5
3.01633e-9,60460.799999999996
3.11354e-9,59528.0
3.21387e-9,58610.0
3.3174500000000004e-9,57706.299999999996
3.42435e-9,56817.0
3.53471e-9,55941.6
3.6486100000000003e-9,55080.1
3.7662000000000005e-9,54232.1
3.88757e-9,53397.6
4.01286e-9,52576.1
4.14217e-9,51767.6
4.2756600000000005e-9,50971.799999999996
4.41344e-9,50188.7
4.55568e-9,49417.7
4.7024800000000005e-9,48659.100000000006
4.85404e-9,47912.299999999996
5.01045e-9,47177.3
5.17193e-9,46453.9
5.338590000000001e-9,45741.899999999994
5.510650000000001e-9,45041.1
5.688220000000001e-9,44351.399999999994
5.871540000000001e-9,43672.5
6.06075e-9,43004.3
6.256080000000001e-9,42346.6
6.4576700000000005e-9,41699.4
6.665790000000001e-9,41062.200000000004
6.8805900000000005e-9,40435.2
7.1023400000000005e-9,39818.0
7.33121e-9,39210.6
7.56748e-9,38612.700000000004
7.81133e-9,38024.3
8.06308e-9,37445.0
8.32291e-9,36875.0
8.59114e-9,36313.9
8.86798e-9,35761.7
9.15378e-9,35218.1
9.44875e-9,34683.1
9.753270000000001e-9,34156.6
1.0067600000000001e-8,33638.4
1.0392e-8,33128.3
1.07269e-8,32626.300000000003
1.10726e-8,32132.100000000002
1.1429400000000001e-8,31645.9
1.17978e-8,31167.2
1.21779e-8,30696.1
1.25704e-8,30232.399999999998
1.29755e-8,29775.999999999996
1.33937e-8,29326.8
1.3825300000000001e-8,28884.699999999997
1.42708e-8,28449.5
1.4730700000000002e-8,28021.2
1.52054e-8,27599.6
1.56954e-8,27184.7
1.62012e-8,26776.300000000003
1.67233e-8,26374.300000000003
1.72623e-8,25978.7
1.78185e-8,25589.300000000003
1.83928e-8,25206.0
1.89855e-8,24828.800000000003
1.9597400000000002e-8,24457.5
2.02289e-8,24092.1
2.0880800000000003e-8,23732.5
2.15537e-8,23378.5
2.2248299999999998e-8,23030.2
2.2965200000000002e-8,22687.300000000003
2.37054e-8,22349.800000000003
2.4469300000000002e-8,22017.699999999997
2.52522e-8,21692.999999999996
2.5299999999999998e-8,21673.7
2.61154e-8,21352.2
2.69569e-8,21035.8
2.7825700000000004e-8,20724.300000000003
2.8722400000000002e-8,20417.800000000003
2.9648e-8,20116.100000000002
3.06034e-8,19819.100000000002
3.1589700000000004e-8,19526.8
3.26077e-8,19239.1
3.36586e-8,18956.0
3.47432e-8,18677.3
3.58629e-8,18403.0
3.70185e-8,18133.1
3.8211599999999997e-8,17867.4
3.95265e-8,17588.7
4.08866e-8,17314.7
4.22936e-8,17045.2
4.3749000000000004e-8,16780.4
4.52544e-8,16520.0
4.68117e-8,16263.9
4.84225e-8,16012.1
5.008880000000001e-8,15764.6
5.18124e-8,15521.199999999999
5.359530000000001e-8,15281.9
5.5439600000000004e-8,15046.6
5.7347400000000006e-8,14815.3
5.93208e-8,14587.9
6.136210000000001e-8,14364.300000000001
6.347360000000001e-8,14144.5
6.565780000000001e-8,13928.400000000001
6.79172e-8,13715.900000000001
7.02543e-8,13507.0
7.267179999999999e-8,13301.6
7.51725e-8,13099.7
7.77593e-8,12901.199999999999
8.04351e-8,12706.1
8.32029e-8,12514.300000000001
8.60661e-8,12325.8
8.90277e-8,12140.4
9.209120000000001e-8,11958.2
9.52602e-8,11779.0
9.85382e-8,11602.8
1.01929e-7,11429.6
1.0543699999999999e-7,11259.300000000001
1.0906499999999999e-7,11091.9
1.1281799999999998e-7,10927.3
1.1669999999999999e-7,10765.4
1.20716e-7,10606.4
1.2486999999999998e-7,10450.0
1.29167e-7,10296.199999999999
1.33611e-7,10145.1
1.38209e-7,9996.55
1.42965e-7,9850.5
1.47885e-7,9706.93
1.52974e-7,9565.8
1.58238e-7,9427.07
1.63683e-7,9290.720000000001
1.6931499999999998e-7,9156.710000000001
1.75142e-7,9025.01
1.81168e-7,8895.54
1.87403e-7,8768.25
1.9385099999999998e-7,8643.08
2.00522e-7,8520.03
2.07422e-7,8399.07
2.1455999999999998e-7,8280.18
2.21943e-7,8163.320000000001
2.2957999999999997e-7,8048.450000000001
2.37481e-7,7935.55
2.4565299999999996e-7,7824.58
2.54106e-7,7715.5199999999995
2.6284999999999995e-7,7608.32
2.7189499999999996e-7,7502.97
2.81251e-7,7399.42
2.91544e-7,7291.36
3.0221599999999996e-7,7185.27
3.13277e-7,7081.12
3.24743e-7,6978.889999999999
3.36628e-7,6878.57
3.4895e-7,6780.13
3.61721e-7,6683.5
3.74961e-7,6588.59
3.8868399999999996e-7,6495.41
4.0291100000000003e-7,6403.9400000000005
4.1765699999999997e-7,6314.17
4.3294499999999994e-7,6226.06
4.4878999999999993e-7,6139.59
4.6521699999999995e-7,6054.7300000000005
4.822429999999999e-7,5971.46
4.998949999999999e-7,5889.74
5.181899999999999e-7,5809.56
5.371579999999999e-7,5730.88
5.568170000000001e-7,5653.6900000000005
5.77198e-7,5577.950000000001
5.98323e-7,5503.66
6.20223e-7,5430.7699999999995
6.42922e-7,5359.28
6.66455e-7,5289.150000000001
6.908459999999999e-7,5220.39
7.16134e-7,5152.9800000000005
7.43916e-7,5083.08
7.72776e-7,5014.53
8.027559999999999e-7,4947.38
8.33899e-7,4881.62
8.6625e-7,4817.24
8.998559999999999e-7,4754.22
9.347659999999999e-7,4692.52
9.71031e-7,4632.139999999999
1.0065699999999998e-6,4576.3
1.04978e-6,4512.46
1.10256e-6,4440.0
1.16611e-6,4359.7
1.2419599999999999e-6,4272.37
1.3320799999999998e-6,4179.299999999999
1.4591099999999998e-6,4064.2500000000005
1.5981799999999999e-6,3955.2900000000004
1.7752799999999998e-6,3837.37
1.97192e-6,3728.9500000000003
2.22135e-6,3614.1200000000003
2.5375e-6,3498.08
2.8988e-6,3394.8900000000003
3.31138e-6,3305.0299999999997
3.8631e-6,3218.3799999999997
4.38222e-6,3161.81
5.00617e-6,3116.6200000000003
5.7186799999999994e-6,3089.48
6.3969099999999995e-6,3082.58
7.2518e-6,3095.45
8.16867e-6,3132.17
9.010350000000001e-6,3183.65
9.800479999999999e-6,3247.0
1.0585800000000001e-5,3324.37
1.1433400000000001e-5,3424.2599999999998
1.2349500000000001e-5,3551.8999999999996
1.3338300000000002e-5,3715.8799999999997
1.4206700000000002e-5,3885.04
1.49203e-5,4042.34
1.5670500000000002e-5,4228.74
1.64576e-5,4450.46
1.7164e-5,4674.38
1.79008e-5,4935.9400000000005
1.8539300000000004e-5,5191.61
1.9199700000000002e-5,5487.47
1.9884500000000002e-5,5832.72
2.04495e-5,6150.9
2.10306e-5,6515.19
2.16282e-5,6933.7
2.2087e-5,7290.14
2.2556600000000004e-5,7690.13
2.3035100000000002e-5,8139.200000000001
2.3524800000000002e-5,8649.23
2.4023800000000002e-5,9228.01
2.4534600000000004e-5,9890.81
2.4880800000000004e-5,10387.4
2.52318e-5,10934.8
2.5587800000000003e-5,11540.1
2.59488e-5,12211.8
2.63148e-5,12960.1
2.6686100000000005e-5,13797.2
2.70626e-5,14737.3
2.7348300000000004e-5,15513.699999999999
2.76366e-5,16372.0
2.7929100000000003e-5,17321.5
2.8224200000000003e-5,18370.1
2.8522200000000003e-5,19532.1
2.88229e-5,20824.5
2.9127900000000006e-5,22274.9
2.94358e-5,23902.100000000002
2.9746500000000004e-5,25736.4
2.99556e-5,27094.2
3.0166200000000003e-5,28574.7
3.0378200000000003e-5,30193.0
3.05917e-5,31966.899999999998
3.0806800000000005e-5,33917.1
3.10233e-5,36067.7
3.12414e-5,38447.3
3.1461e-5,41089.700000000004
3.16822e-5,44035.0
3.19049e-5,47331.6
3.20731e-5,50071.6
3.2241300000000006e-5,53054.7
3.24119e-5,56357.799999999996
3.25824e-5,59970.9
3.2753800000000005e-5,63951.399999999994
3.29268e-5,68392.40000000001
3.3099800000000005e-5,73305.2
3.32744e-5,78817.8
3.3449800000000006e-5,85007.40000000001
3.35668e-5,89537.20000000001
3.3684500000000006e-5,94464.7
3.38031e-5,99836.1
3.3921700000000004e-5,105661.0
3.404030000000001e-5,112003.00000000001
3.41598e-5,118985.00000000001
3.4280000000000004e-5,126692.0
3.44003e-5,135161.0
3.45206e-5,144492.0
3.4641700000000004e-5,154882.0
3.476370000000001e-5,166497.0
3.4855100000000004e-5,176071.0
3.49466e-5,186479.0
3.5038100000000006e-5,197819.0
3.5130400000000005e-5,210327.99999999997
3.5223200000000005e-5,224104.0
3.5316000000000005e-5,239251.0
3.5408700000000005e-5,255955.99999999997
3.55015e-5,274437.0
3.5593500000000004e-5,294768.0
3.5683900000000006e-5,316990.0
3.57743e-5,341766.0
3.58647e-5,369496.0
3.5925e-5,389855.0
3.59852e-5,411897.0
3.6045500000000006e-5,435812.00000000006
3.6116300000000005e-5,466598.0
3.6187100000000005e-5,500690.0
3.6258000000000004e-5,538583.0
3.6328800000000004e-5,580856.0
3.6376000000000005e-5,611804.0
3.64232e-5,645234.0
3.6483600000000004e-5,692077.0
3.6544e-5,744076.0
3.65893e-5,786915.0
3.6634700000000003e-5,833461.0
3.66838e-5,888569.0
3.6740400000000005e-5,959021.0000000001
3.6778200000000006e-5,1.01061e6
3.68159e-5,1.06633e6
3.68537e-5,1.12664e6
3.6891500000000004e-5,1.19204e6
3.6929200000000006e-5,1.26309e6
3.6967e-5,1.34042e6
3.70048e-5,1.42479e6
3.70425e-5,1.51702e6
3.7080300000000005e-5,1.61806e6
3.71181e-5,1.72902e6
3.71558e-5,1.85115e6
3.71936e-5,1.98588e6
3.7231400000000004e-5,2.13487e6
3.7269100000000005e-5,2.30001e6
3.7297400000000006e-5,2.43576e6
3.73258e-5,2.58283e6
3.73541e-5,2.74234e6
3.73824e-5,2.91552e6
3.7410700000000004e-5,3.10372e6
3.7439100000000005e-5,3.30839e6
3.74674e-5,3.53107e6
3.74957e-5,3.77341e6
3.7524e-5,4.03709e6
3.75524e-5,4.32384e6
3.7580700000000004e-5,4.63534e6
3.7609000000000005e-5,4.97317e6
3.76373e-5,5.33868e6
3.766570000000001e-5,5.7329e6
3.7694e-5,6.15635e6
3.77223e-5,6.60886e6
3.7760100000000005e-5,7.25548e6
3.7797800000000006e-5,7.94627e6
3.78545e-5,9.04248e6
3.7933800000000006e-5,1.05979e7
3.7979100000000004e-5,1.14213e7
3.8013100000000004e-5,1.19698e7
3.8041400000000005e-5,1.23641e7
3.8069700000000006e-5,1.2689299999999998e7
3.809810000000001e-5,1.29351e7
3.81264e-5,1.3093999999999998e7
3.8152500000000004e-5,1.31588e7
3.81604e-5,1.31627e7
3.818490000000001e-5,1.3128e7
3.82133e-5,1.30012e7
3.82416e-5,1.2786e7
3.8269900000000004e-5,1.2489300000000002e7
3.82982e-5,1.21208e7
3.8326500000000007e-5,1.16915e7
3.8371900000000004e-5,1.0908500000000002e7
3.84323e-5,9.75805e6
3.8504e-5,8.367620000000001e6
3.8541800000000004e-5,7.66802e6
3.85796e-5,7.00746e6
3.861730000000001e-5,6.39337e6
3.86457e-5,5.96563e6
3.8674e-5,5.56662e6
3.8702300000000004e-5,5.19607e6
3.8730600000000005e-5,4.85324e6
3.8759000000000006e-5,4.537e6
3.87873e-5,4.24602e6
3.88156e-5,3.97886e6
3.88439e-5,3.73412e6
3.8872300000000004e-5,3.51048e6
3.8900600000000005e-5,3.30675e6
3.8928900000000006e-5,3.12196e6
3.89572e-5,2.95533e6
3.89856e-5,2.80628e6
3.90139e-5,2.67434e6
3.9042200000000004e-5,2.55908e6
3.90666e-5,2.4727e6
3.90965e-5,2.38226e6
3.9126500000000006e-5,2.30738e6
3.9156400000000003e-5,2.24568e6
3.920180000000001e-5,2.16979e6
3.92758e-5,2.0573100000000002e6
3.9314300000000004e-5,1.98641e6
3.9345400000000004e-5,1.91752e6
3.93727e-5,1.84744e6
3.9410000000000004e-5,1.73904e6
3.9459700000000004e-5,1.57928e6
3.9521900000000005e-5,1.37709e6
3.95591e-5,1.26517e6
3.9589e-5,1.18399e6
3.9614400000000005e-5,1.12122e6
3.9638700000000004e-5,1.06718e6
3.96629e-5,1.01844e6
3.9691200000000004e-5,967681.0
3.97215e-5,919717.0
3.97518e-5,877347.0
3.97821e-5,839570.0
3.9812400000000005e-5,805526.0
3.98481e-5,769223.0
3.98947e-5,726795.0
3.99413e-5,688728.0
3.9987900000000004e-5,654143.0
4.0050100000000005e-5,612461.0
4.0108300000000004e-5,577236.0
4.01627e-5,547226.0
4.02171e-5,519632.0
4.029860000000001e-5,482171.00000000006
4.038020000000001e-5,448768.0
4.04618e-5,418829.0
4.05161e-5,400556.99999999994
4.0587600000000004e-5,378367.0
4.0659000000000005e-5,358029.0
4.0730500000000006e-5,339340.0
4.0801900000000007e-5,322125.0
4.0909100000000004e-5,298736.0
4.10163e-5,277888.0
4.1124e-5,259139.0
4.12327e-5,242144.0
4.134140000000001e-5,226832.0
4.145e-5,212993.0
4.1558700000000006e-5,200446.0
4.16674e-5,189026.0
4.1777600000000005e-5,178450.0
4.18879e-5,168771.0
4.196130000000001e-5,162769.0
4.21083e-5,151733.0
4.22553e-5,141842.0
4.24043e-5,132821.0
4.2553300000000005e-5,124685.0
4.2702400000000006e-5,117321.00000000001
4.285140000000001e-5,110633.0
4.30026e-5,104458.0
4.31537e-5,98824.40000000001
4.33048e-5,93669.2
4.3456000000000005e-5,88939.6
4.36092e-5,84530.9
4.38392e-5,78560.7
4.40691e-5,73258.7
4.4302200000000004e-5,68465.0
4.453540000000001e-5,64175.8
4.4769600000000006e-5,60305.1
4.50061e-5,56784.8
4.5242500000000006e-5,53603.1
4.54812e-5,50691.6
4.5720900000000005e-5,48033.299999999996
4.59607e-5,45610.600000000006
4.628490000000001e-5,42661.9
4.660910000000001e-5,40044.2
4.69379e-5,37669.9
4.7266700000000006e-5,35539.0
4.7600100000000005e-5,33594.6
4.7933500000000004e-5,31842.5
4.82717e-5,30236.9
4.8609800000000003e-5,28781.500000000004
4.89527e-5,27440.899999999998
4.929560000000001e-5,26226.699999999997
4.981720000000001e-5,24568.0
5.0343700000000004e-5,23100.399999999998
5.08752e-5,21798.600000000002
5.141160000000001e-5,20639.3
5.195560000000001e-5,19598.2
5.2504700000000006e-5,18665.9
5.305900000000001e-5,17828.3
5.36184e-5,17073.8
5.437490000000001e-5,16178.6
5.5142e-5,15394.5
5.592e-5,14706.4
5.67089e-5,14101.300000000001
5.750890000000001e-5,13568.800000000001
5.83203e-5,13104.1
5.9143100000000006e-5,12691.4
5.9977500000000006e-5,12329.1
6.0823700000000005e-5,12012.199999999999
6.211690000000001e-5,11609.5
6.34345e-5,11289.400000000001
6.478320000000001e-5,11036.4
6.61574e-5,10849.1
6.7564e-5,10717.8
6.89972e-5,10641.300000000001
7.03424e-5,10617.300000000001
7.1838e-5,10644.7
7.33618e-5,10732.0
7.492160000000001e-5,10894.3
7.586640000000001e-5,11040.8
7.682460000000001e-5,11245.0
7.763560000000001e-5,11485.9
7.81814e-5,11704.300000000001
7.873090000000001e-5,11997.7
7.9146e-5,12295.199999999999
7.942270000000001e-5,12547.900000000001
7.972530000000001e-5,12895.7
7.997180000000001e-5,13256.8
8.021820000000001e-5,13718.4
8.0382e-5,14101.8
8.05458e-5,14568.300000000001
8.06687e-5,14988.8
8.079160000000001e-5,15487.2
8.087350000000002e-5,15873.2
8.098810000000001e-5,16503.8
8.107410000000001e-5,17061.9
8.11601e-5,17711.7
8.124620000000002e-5,18475.3
8.13322e-5,19382.3
8.13936e-5,20139.7
8.145500000000001e-5,21009.5
8.15165e-5,22016.300000000003
8.15779e-5,23192.2
8.16188e-5,24090.4
8.16598e-5,25098.3
8.16983e-5,26163.699999999997
8.173679999999999e-5,27364.600000000002
8.177530000000002e-5,28727.399999999998
8.181380000000001e-5,30286.0
8.18427e-5,31610.0
8.187150000000001e-5,33093.5
8.19004e-5,34767.2
8.192930000000002e-5,36670.7
8.19582e-5,38854.9
8.19805e-5,40777.299999999996
8.19995e-5,42610.200000000004
8.20186e-5,44651.2
8.203760000000002e-5,46935.5
8.20567e-5,49504.799999999996
8.207570000000001e-5,52408.9
8.20947e-5,55706.9
8.21138e-5,59468.9
8.21265e-5,62274.6
8.213920000000001e-5,65350.5
8.21519e-5,68727.3
8.216460000000001e-5,72438.7
8.217910000000001e-5,77147.9
8.21914e-5,81552.90000000001
8.220370000000002e-5,86390.4
8.221600000000001e-5,91704.1
8.222830000000001e-5,97541.0
8.22405e-5,103951.0
8.22528e-5,110989.0
8.22651e-5,118710.0
8.227740000000001e-5,127173.0
8.22897e-5,136442.0
8.230200000000001e-5,146578.0
8.2313e-5,156499.0
8.23241e-5,167225.0
8.23352e-5,178806.0
8.23462e-5,191290.0
8.23573e-5,204725.0
8.23683e-5,219159.00000000003
8.23794e-5,234635.99999999997
8.23904e-5,251198.0
8.240520000000001e-5,275036.0
8.241990000000001e-5,300952.0
8.243140000000001e-5,322587.0
8.24486e-5,357514.0
8.24658e-5,395437.0
8.248300000000002e-5,436343.0
8.25002e-5,480156.0
8.251820000000001e-5,529022.0
8.253790000000001e-5,585506.0
8.256410000000001e-5,665214.0
8.260210000000001e-5,786933.0
8.2648e-5,935906.0
8.26742e-5,1.0175399999999999e6
8.27004e-5,1.09339e6
8.272000000000001e-5,1.1449e6
8.27397e-5,1.19063e6
8.275940000000001e-5,1.2296e6
8.277900000000002e-5,1.26096e6
8.279870000000001e-5,1.284e6
8.28183e-5,1.2982e6
8.2839e-5,1.30324e6
8.28577e-5,1.29898e6
8.28727e-5,1.28949e6
8.289440000000001e-5,1.26672e6
8.2914e-5,1.23715e6
8.29337e-5,1.19982e6
8.295330000000001e-5,1.15556e6
8.2973e-5,1.10532e6
8.299920000000001e-5,1.03084e6
8.302540000000001e-5,950179.0
8.31008e-5,706933.0
8.31303e-5,615527.0
8.31538e-5,546523.0
8.31696e-5,503028.00000000006
8.318530000000002e-5,461758.0
8.319970000000001e-5,425997.0
