E(MeV),xs(mb)
1.0e-11,30851.8
1.03223e-11,30369.0
1.06549e-11,29894.2
1.0998399999999998e-11,29426.600000000002
1.13527e-11,28966.699999999997
1.1718599999999999e-11,28513.8
1.2096199999999998e-11,28068.300000000003
1.24861e-11,27629.7
1.2888399999999999e-11,27198.2
1.3303799999999998e-11,26773.4
1.37325e-11,26355.5
1.41751e-11,25943.999999999996
1.4631799999999997e-11,25539.2
1.51034e-11,25140.699999999997
1.5590099999999998e-11,24748.7
1.6092599999999998e-11,24362.7
1.66111e-11,23983.1
1.71465e-11,23609.300000000003
1.7699e-11,23241.5
1.8269399999999998e-11,22879.5
1.88581e-11,22523.399999999998
1.94659e-11,22172.800000000003
2.00931e-11,21827.899999999998
2.0740699999999998e-11,21488.399999999998
2.1408999999999998e-11,21154.4
2.2099099999999997e-11,20825.6
2.28111e-11,20502.2
2.3546399999999998e-11,20183.8
2.4305099999999997e-11,19870.5
2.50884e-11,19562.2
2.5896799999999997e-11,19258.9
2.67315e-11,18960.399999999998
2.75928e-11,18666.7
2.8482199999999998e-11,18377.600000000002
2.93999e-11,18093.2
3.0347499999999995e-11,17813.3
3.13253e-11,17537.899999999998
3.2335e-11,17266.9
3.33769e-11,17000.3
3.44526e-11,16737.899999999998
3.55627e-11,16479.7
3.67089e-11,16225.7
3.7891799999999997e-11,15975.699999999999
3.9113e-11,15729.800000000001
4.0373400000000003e-11,15487.800000000001
4.1674599999999996e-11,15249.699999999999
4.3017399999999996e-11,15015.5
4.440389999999999e-11,14785.0
4.58347e-11,14558.3
4.7311899999999994e-11,14335.199999999999
4.883639999999999e-11,14115.7
5.0410399999999995e-11,13899.699999999999
5.20348e-11,13687.3
5.37119e-11,13478.300000000001
5.54426e-11,13272.6
5.7229499999999995e-11,13070.3
5.907359999999999e-11,12871.300000000001
6.09775e-11,12675.6
6.29424e-11,12483.0
6.497099999999999e-11,12293.5
6.70645e-11,12107.2
6.9226e-11,11923.8
7.145659999999999e-11,11743.5
7.37596e-11,11566.099999999999
7.61364e-11,11391.6
7.85902e-11,11220.000000000002
8.11227e-11,11051.2
8.37372e-11,10885.199999999999
8.643549999999999e-11,10721.9
8.922119999999998e-11,10561.3
9.209619999999999e-11,10403.3
9.506439999999999e-11,10248.0
9.81277e-11,10095.199999999999
1.01291e-10,9944.94
1.04554e-10,9797.22
1.07924e-10,9651.9
1.11402e-10,9509.06
1.1499200000000001e-10,9368.539999999999
1.1869700000000001e-10,9230.42
1.22523e-10,9094.56
1.26471e-10,8961.029999999999
1.30547e-10,8829.7
1.34754e-10,8700.62
1.3909700000000002e-10,8573.67
1.43579e-10,8448.91
1.48207e-10,8326.22
1.52982e-10,8205.66
1.57913e-10,8087.099999999999
1.6300100000000001e-10,7970.6
1.68254e-10,7856.05
1.73676e-10,7743.5
1.79274e-10,7632.85
1.8505000000000002e-10,7524.13
1.91418e-10,7410.21
1.98005e-10,7298.4
2.04818e-10,7188.64
2.1186600000000003e-10,7080.92
2.1915700000000002e-10,6975.2
2.2669800000000004e-10,6871.46
2.34499e-10,6769.650000000001
2.42569e-10,6669.75
2.50916e-10,6571.73
2.5955e-10,6475.5599999999995
2.6848100000000005e-10,6381.21
2.7772e-10,6288.65
2.87277e-10,6197.849999999999
2.97163e-10,6108.79
3.07388e-10,6021.4400000000005
3.17966e-10,5935.7699999999995
3.2890700000000003e-10,5851.759999999999
3.4022500000000003e-10,5769.38
3.51933e-10,5688.6
3.64043e-10,5609.41
3.76571e-10,5531.76
3.8952900000000004e-10,5455.650000000001
4.02933e-10,5381.04
4.1679800000000003e-10,5307.91
4.3114100000000003e-10,5236.24
4.45977e-10,5166.01
4.6132400000000005e-10,5097.1900000000005
4.77198e-10,5029.759999999999
4.93619e-10,4963.69
5.10605e-10,4898.97
5.29296e-10,4831.65
5.48666e-10,4765.82
5.6875e-10,4701.41
5.89565e-10,4638.429999999999
6.11145e-10,4576.84
6.33512e-10,4516.62
6.56701e-10,4457.740000000001
6.80734e-10,4400.2
7.056520000000001e-10,4343.94
7.31477e-10,4288.96
7.58252e-10,4235.23
7.86002e-10,4182.7300000000005
8.14773e-10,4131.43
8.44592e-10,4081.3300000000004
8.75507e-10,4032.3700000000003
9.094720000000001e-10,3981.79
9.44755e-10,3932.45
9.81407e-10,3884.35
1.01948e-9,3837.44
1.05903e-9,3791.71
1.1001200000000001e-9,3747.1299999999997
1.1428e-9,3703.68
1.18713e-9,3661.34
1.23318e-9,3620.07
1.28373e-9,3577.65
1.3363600000000001e-9,3536.3799999999997
1.3911400000000002e-9,3496.24
1.44817e-9,3457.19
1.5075400000000002e-9,3419.2
1.56934e-9,3382.26
1.63367e-9,3346.33
1.7042400000000001e-9,3309.58
1.7778600000000001e-9,3273.8999999999996
1.85466e-9,3239.25
1.9347700000000003e-9,3205.61
2.01835e-9,3172.9599999999996
2.11e-9,3139.69
2.2058e-9,3107.45
2.3059599999999998e-9,3076.19
2.41066e-9,3045.89
2.52013e-9,3016.52
2.64013e-9,2986.71
2.76585e-9,2957.86
2.89755e-9,2929.9300000000003
3.0419500000000002e-9,2901.68
3.1935600000000003e-9,2874.38
3.3527000000000002e-9,2847.98
3.5198e-9,2822.45
3.70303e-9,2796.71
3.8958000000000005e-9,2771.86
4.09861e-9,2747.85
4.321100000000001e-9,2723.7200000000003
4.55568e-9,2700.43
4.8029700000000004e-9,2677.9700000000003
5.07442e-9,2655.44
5.361220000000001e-9,2633.74
5.6762200000000005e-9,2612.02
6.0097e-9,2591.12
6.3762600000000005e-9,2570.26
6.765170000000001e-9,2550.2
7.19302e-9,2530.23
7.647890000000001e-9,2511.05
8.14876e-9,2491.99
8.682430000000001e-9,2473.7
9.27066e-9,2455.5699999999997
9.89869e-9,2438.18
1.05917e-8,2420.98
1.13331e-8,2404.5
1.21522e-8,2388.22
1.3058099999999999e-8,2372.1800000000003
1.40314e-8,2356.85
1.51092e-8,2341.7599999999998
1.63043e-8,2326.94
1.7631200000000002e-8,2312.41
1.91064e-8,2298.2
2.07049e-8,2284.6600000000003
2.2484700000000003e-8,2271.44
2.4469300000000002e-8,2258.54
2.52522e-8,2253.8999999999996
2.5299999999999998e-8,2253.6200000000003
2.76497e-8,2241.01
3.0281600000000004e-8,2228.77
3.32342e-8,2216.9
3.6551800000000004e-8,2205.4100000000003
4.0285799999999997e-8,2194.3100000000004
4.4589400000000005e-8,2183.37
4.94573e-8,2172.8399999999997
5.49727e-8,2162.73
6.136210000000001e-8,2152.83
6.863889999999999e-8,2143.36
7.710440000000001e-8,2134.14
8.69806e-8,2125.2
9.85382e-8,2116.55
1.12104e-7,2108.2200000000003
1.28079e-7,2100.21
1.4726099999999998e-7,2092.42
1.7003299999999997e-7,2084.99
1.9757499999999997e-7,2077.82
2.3104099999999998e-7,2070.95
2.7189499999999996e-7,2064.38
3.2200799999999995e-7,2058.1200000000003
3.8459699999999996e-7,2052.13
4.632539999999999e-7,2046.4199999999998
5.63926e-7,2040.95
6.93774e-7,2035.7599999999998
8.625949999999999e-7,2030.8700000000001
1.08722e-6,2026.2199999999998
1.82573e-6,2017.5200000000002
4.8678499999999995e-6,2005.5900000000001
1.80388e-5,1993.3000000000002
0.000125572,1955.4
0.0006289080000000001,1808.8
0.00121513,1652.86
0.00180224,1509.64
0.00239144,1377.3999999999999
0.0029830800000000004,1255.26
0.0035620300000000003,1144.8400000000001
0.00414137,1042.75
0.00471839,948.471
0.00528042,863.221
0.00584992,783.2080000000001
0.0063629,716.113
0.00688031,652.686
0.00737954,595.354
0.0078423,545.352
0.00834723,494.25600000000003
0.00882835,448.58799999999997
0.009337199999999999,403.46000000000004
0.00986201,360.12
0.010366899999999998,321.182
0.0107957,290.272
0.0112023,262.846
0.0116293,235.738
0.0120071,213.212
0.012386600000000001,191.995
0.0126391,178.61100000000002
0.012891600000000001,165.812
0.013144000000000001,153.591
0.0133965,141.94299999999998
0.013649,130.863
0.0138041,124.274
0.014054800000000001,114.16900000000001
0.0143054,104.614
0.0145561,95.6054
0.0148068,87.1411
0.0150575,79.2197
0.015308200000000001,71.8405
0.0155589,65.0025
0.0157469,60.2447
0.015934999999999998,55.7637
0.016123000000000002,51.619099999999996
0.016311,47.7517
0.016499,44.2228
0.0166244,42.0322
0.016749700000000003,39.9796
0.0168751,38.0657
0.0170004,36.2909
0.0171258,34.6557
0.0172511,33.1609
0.0173138,32.4509
0.017439100000000003,31.1678
0.0175645,30.0267
0.017689800000000002,29.0285
0.0178152,28.174
0.017940499999999998,27.464100000000002
0.0180659,26.8996
0.0181912,26.4817
0.018316600000000002,26.211199999999998
0.018473299999999998,26.0809
0.018567300000000002,26.116799999999998
0.0186926,26.2958
0.018817999999999998,26.6265
0.0189433,27.110699999999998
0.0190687,27.7497
0.019194,28.5447
0.0193194,29.4974
0.0194447,30.609099999999998
0.01957,31.8816
0.019695400000000002,33.3163
0.0198207,34.915
0.0199461,36.6794
0.020071400000000003,38.611399999999996
0.0201968,40.7128
0.020322100000000003,42.985499999999995
0.0204475,45.4317
0.0205728,48.05329999999999
0.0206982,50.852500000000006
0.020823499999999998,53.8315
0.0209489,56.9927
0.0211369,62.1014
0.021324900000000004,67.5931
0.021512899999999998,73.5582
0.021701,79.9225
0.021889,86.7807
0.022077,94.0558
0.022265000000000004,101.847
0.022452999999999997,110.181
0.0225784,115.85300000000001
0.0228291,128.074
0.0230798,141.216
0.0233305,155.31
0.0235812,170.39
0.0238319,186.49
0.0240826,203.648
0.024333300000000002,221.90300000000002
0.024584,241.296
0.024834600000000002,261.872
0.0250853,283.677
0.025335999999999997,306.759
0.025636899999999997,336.32
0.0259377,367.692
0.0262385,401.394
0.0265394,437.098
0.026840199999999998,475.383
0.027141000000000002,515.893
0.0274419,559.274
0.027742700000000002,605.135
0.0280435,654.201
0.0283444,706.0419999999999
0.028645200000000003,761.474
0.0290463,840.587
0.0294474,926.362
0.0298486,1019.36
0.0302497,1120.2
0.030650800000000002,1229.5700000000002
0.0310519,1348.22
0.031453,1477.01
0.0318541,1616.88
0.0322552,1768.8600000000001
0.0326563,1934.1299999999999
0.0330574,2113.98
0.0334586,2309.8900000000003
0.0338597,2523.4700000000003
0.0342608,2756.56
0.0346619,3011.22
0.035063000000000004,3289.7599999999998
0.0353638,3515.1
0.0356647,3758.14
0.035965500000000004,4016.9100000000003
0.036266400000000004,4296.47
0.0365672,4594.52
0.036868,4917.06
0.0371689,5261.4400000000005
0.0374697,5634.7699999999995
0.0377705,6033.96
0.0380714,6467.469999999999
0.0383722,6931.69
0.038673000000000006,7436.72
0.0389739,7978.29
0.0392747,8568.429999999998
0.0395755,9202.109999999999
0.0398764,9893.63
0.040177199999999996,10637.0
0.040478,11449.1
0.0407789,12322.800000000001
0.0410797,13277.9
0.0413805,14305.699999999999
0.0416814,15429.0
0.041982200000000004,16637.1
0.042283,17955.8
0.0425839,19371.6
0.042884700000000005,20912.3
0.0431855,22560.899999999998
0.043486399999999995,24345.1
0.043787200000000005,26243.3
0.0441883,28977.6
0.0445894,31924.600000000002
0.0450908,35868.2
0.0463443,46189.600000000006
0.04679560000000001,49620.7
0.0471465,51977.9
0.0474975,53966.700000000004
0.047798299999999995,55307.1
0.0480992,56269.7
0.0484,56829.5
0.048700799999999995,56972.7
0.0490017,56696.600000000006
0.0493025,56078.0
0.0496033,55086.00000000001
0.0499042,53827.99999999999
0.0503053,51767.0
0.0507064,49405.5
0.0515923,43682.7
0.0523887,38548.8
0.052938,35229.0
0.05335,32896.200000000004
0.053762,30732.7
0.054174,28710.2
0.054585999999999996,26856.5
0.054998,25135.0
0.05541000000000001,23565.7
0.055822000000000004,22112.2
0.056234000000000006,20789.300000000003
0.056646,19564.399999999998
0.057058,18448.8
0.057469900000000004,17414.6
0.0578819,16470.8
0.058431300000000005,15321.800000000001
0.0589806,14289.400000000001
0.0595299,13359.5
0.060079200000000006,12519.6
0.0606286,11759.1
0.06117790000000001,11068.7
0.061864499999999996,10290.6
0.0624139,9729.92
0.0629632,9216.64
0.0635125,8745.609999999999
0.0640618,8312.36
0.06461120000000001,7912.96
0.0651605,7543.97
0.0657098,7202.36
0.0662591,6885.469999999999
0.0668084,6590.950000000001
0.0676324,6188.6900000000005
0.0684564,5821.91
0.0692804,5493.29
0.0701044,5191.73
0.0709284,4919.52
0.0717524,4668.3
0.072851,4366.85
0.0739496,4097.03
0.0750483,3854.44
0.0761469,3635.42
0.07724560000000001,3436.93
0.0783442,3256.42
0.0794429,3091.7
0.0805415,2940.9100000000003
0.08164020000000001,2802.4900000000002
0.0827388,2675.09
0.0838375,2557.5299999999997
0.0849361,2448.7999999999997
0.0860348,2348.02
0.08768269999999999,2210.82
0.08933070000000001,2086.06
0.09097870000000001,1974.72
0.0926266,1872.8
0.0942746,1781.15
0.0964719,1670.86
0.09866920000000001,1573.0
0.100866,1485.8
0.103064,1407.84
0.10526100000000001,1337.93
0.10745800000000001,1275.07
0.109876,1213.5
0.112089,1162.52
0.114302,1116.48
0.116514,1074.8500000000001
0.11872700000000001,1037.21
0.12094,1003.1699999999998
0.12315300000000001,972.404
0.126244,934.2620000000001
0.129791,897.0230000000001
0.133277,865.9119999999999
0.136429,842.647
0.139868,821.111
0.144263,799.733
0.148658,784.2520000000001
0.15305200000000002,774.069
0.157401,768.74
0.160743,767.592
0.16623600000000002,770.9069999999999
0.170631,777.904
0.17626,792.4789999999999
0.180685,807.614
0.18511100000000003,826.0780000000001
0.189536,847.7650000000001
0.195469,881.431
0.20120000000000002,919.483
0.20691700000000002,962.466
0.212757,1012.11
0.21704800000000002,1051.3
0.22282000000000002,1108.6000000000001
0.228591,1170.99
0.23436300000000002,1238.51
0.240134,1311.22
0.245906,1389.23
0.25167700000000004,1472.61
0.257449,1561.49
0.26322,1656.0
0.268992,1756.25
0.27476300000000003,1862.39
0.280535,1974.58
0.28888600000000003,2147.19
0.295541,2296.38
0.30264,2462.24
0.31181000000000003,2693.7000000000003
0.32098000000000004,2943.12
0.33010100000000003,3209.77
0.33931900000000004,3498.7
0.34848900000000005,3806.2599999999998
0.357659,4134.57
0.36682800000000004,4484.27
0.37599800000000005,4855.98
0.385168,5250.27
0.397119,5801.389999999999
0.406354,6252.889999999999
0.415588,6728.83
0.42482300000000006,7229.56
0.43405699999999997,7755.4
0.443291,8306.58
0.45569600000000005,9087.01
0.47099500000000005,10113.9
0.48603500000000005,11189.1
0.503283,12509.999999999998
0.5217520000000001,14018.5
0.541053,15693.1
0.563339,17739.6
0.5910420000000001,20410.8
0.621289,23465.8
0.64192,25682.3
0.657394,27504.9
0.6687420000000001,29007.6
0.6775680000000001,30343.2
0.685133,31660.1
0.6914370000000001,32925.3
0.697856,34433.3
0.703358,35938.2
0.7088990000000001,37677.1
0.7137180000000001,39366.6
0.723658,43006.399999999994
0.7282090000000001,44411.7
0.731922,45256.299999999996
0.735577,45755.2
0.739249,45921.5
0.7431420000000001,45789.299999999996
0.7457370000000001,45573.49999999999
0.761803,43695.8
0.7659250000000001,43322.700000000004
0.766956,43240.100000000006
0.766956,3769.71
0.777776,3766.5099999999998
0.788749,3763.2599999999998
0.7998770000000001,3759.9700000000003
0.8,3759.9300000000003
0.811287,3757.5099999999998
0.8227320000000001,3755.05
0.8343400000000001,3752.5499999999997
0.8461110000000001,3750.03
0.8500000000000001,3749.19
0.8619920000000001,3746.0499999999997
0.874153,3742.87
0.8864860000000001,3739.64
0.8989929999999999,3736.36
0.9,3736.1
0.920347,3732.2099999999996
0.920347,3732.17
1.26917,3668.7599999999998
2.07134,3552.06
2.73809,3444.45
3.2,3351.57
3.38319,3255.7599999999998
3.4,3306.45
3.43984,3286.8599999999997
3.65079,3246.28
4.2,3105.34
4.31028,3032.69
4.4,3052.39
4.6,2999.42
4.64984,2958.4100000000003
4.70351,2933.74
4.8,2946.89
5.03527,2883.99
5.16232,2843.48
5.2,2844.79
5.37529,2797.82
5.39847,2793.97
5.4,2795.81
5.4877,2756.22
5.5426,2743.0699999999997
5.6,2748.69
5.66822,2718.34
5.72939,2705.76
5.8,2703.47
5.94323,2663.0699999999997
5.99442,2658.36
6.0,2660.2999999999997
6.36041,2582.9300000000003
6.4,2580.48
6.56404,2548.3799999999997
6.62675,2536.6
6.71693,2518.29
6.87762,2496.19
7.35984,2422.08
7.87728,2352.91
7.97287,2341.89
7.99616,2341.0099999999998
8.0,2341.18
8.06707,2313.0299999999997
8.55996,2280.58
9.44738,2198.78
10.0,2154.5899999999997
10.141100000000002,2127.9900000000002
10.1577,2124.86
10.166599999999999,2123.2000000000003
10.2634,2121.21
10.2839,2120.81
10.3376,2119.8100000000004
10.3657,2119.31
10.5,2118.2799999999997
10.6481,2108.4900000000002
10.798399999999999,2098.57
10.9507,2088.5
11.0,2085.2400000000002
11.1552,2075.59
11.175600000000001,2074.32
11.2405,2070.42
11.2849,2067.7799999999997
11.444099999999999,2058.67
11.5,2055.4700000000003
11.6622,2046.83
11.826799999999999,2038.07
11.9569,2031.14
12.0,2029.0
12.1693,2020.9
12.2458,2017.2400000000002
12.4186,2009.54
12.5,2005.91
12.6149,2001.1299999999999
12.7929,1994.25
12.9734,1987.28
13.0,1986.25
13.0466,1984.6200000000001
13.230699999999999,1978.53
13.3583,1974.3200000000002
13.462499999999999,1971.11
13.5,1969.98
13.629100000000001,1966.34
13.6326,1966.24
13.6728,1965.1499999999999
13.799399999999999,1961.88
13.9941,1957.17
14.0,1957.03
14.197500000000002,1953.17
14.3978,1949.26
14.5,1947.26
14.704600000000001,1944.49
14.912,1941.67
15.0,1940.48
15.0112,1940.37
15.143699999999999,1939.21
15.357400000000002,1937.65
15.3921,1937.4
15.5,1936.76
15.5448,1936.52
15.6494,1936.02
15.6803,1935.89
15.728100000000001,1935.6899999999998
15.744,1935.64
15.9661,1935.01
16.0,1934.92
16.2257,1935.3
16.4546,1935.6899999999998
16.5,1935.77
16.7328,1936.8600000000001
16.9689,1937.97
17.0,1938.1200000000001
17.239800000000002,1939.76
17.3121,1940.25
17.348300000000002,1940.5300000000002
17.5,1942.04
17.7469,1944.85
17.9973,1947.6899999999998
18.0,1947.7199999999998
18.0598,1948.46
18.314600000000002,1951.8
18.5,1954.23
18.722,1957.3899999999999
18.9861,1961.3400000000001
19.0,1961.54
19.2681,1965.76
19.5,1969.41
19.775100000000002,1973.96
19.791,1974.22
19.8172,1974.66
20.0,1977.76
20.282200000000003,1982.68
20.5683,1987.66
20.858500000000003,1992.72
21.0,1995.19
21.296300000000002,2000.43
21.596700000000002,2005.75
21.9014,2011.1500000000003
22.0,2012.89
22.3104,2018.31
22.625099999999996,2023.8
22.944300000000002,2029.3700000000001
23.0,2030.34
23.3245,2035.8100000000002
23.653599999999997,2041.35
23.9873,2046.97
24.0,2047.19
24.3386,2052.61
24.682,2058.1
25.0,2063.19
25.352700000000002,2068.5
25.7104,2073.89
26.0,2078.2400000000002
26.3668,2083.3599999999997
26.7388,2088.55
27.0,2092.19
27.3809,2097.0499999999997
27.767200000000003,2101.98
28.0,2104.9500000000003
28.395000000000003,2109.48
28.7956,2114.08
29.0,2116.42
29.409100000000002,2120.54
29.824,2124.71
30.0,2126.48
30.4232,2130.05
30.8525,2133.67
31.0,2134.9100000000003
31.437400000000004,2137.9199999999996
31.880899999999997,2140.97
32.0,2141.79
32.4515,2144.3599999999997
32.9093,2146.96
33.0,2147.48
33.4656,2149.25
33.9377,2151.04
34.0,2151.2799999999997
34.4797,2152.5
34.9661,2153.73
35.0,2153.82
35.4938,2154.1800000000003
35.9945,2154.55
36.0,2154.55
36.5079,2154.31
37.0,2154.0699999999997
37.522000000000006,2152.92
38.0,2151.86
38.536100000000005,2150.08
39.0,2148.54
39.550200000000004,2145.84
40.0,2143.64
40.564299999999996,2140.32
41.0,2137.75
41.5784,2133.52
42.0,2130.44
42.5925,2125.6
43.0,2122.27
43.6067,2116.54
44.0,2112.82
44.6208,2106.49
45.0,2102.63
45.6349,2095.46
46.0,2091.34
46.649,2083.62
47.0,2079.44
47.6631,2070.91
48.0,2066.58
48.6772,2057.54
49.0,2053.23
49.6913,2043.4199999999998
50.0,2039.04
50.705400000000004,2028.7700000000002
51.0,2024.48
51.7195,2013.5
52.0,2009.22
52.7336,1997.8
53.0,1993.66
53.747699999999995,1981.58
54.0,1977.51
54.7618,1965.06
55.0,1961.17
55.776,1948.1299999999999
56.0,1944.3600000000001
56.790099999999995,1930.98
57.0,1927.4199999999998
57.8042,1913.48
58.0,1910.0900000000001
58.8183,1895.8600000000001
59.0,1892.7
59.83240000000001,1877.98
60.0,1875.01
60.8465,1860.2
61.0,1857.51
61.860600000000005,1842.25
62.0,1839.78
62.8747,1824.1000000000001
63.0,1821.85
63.8888,1805.7700000000002
64.0,1803.76
64.9029,1787.3000000000002
65.0,1785.53
65.917,1769.23
66.0,1767.76
66.9311,1751.1399999999999
67.0,1749.91
67.9453,1732.9699999999998
68.0,1731.99
68.9594,1714.65
69.0,1713.92
69.9735,1696.41
70.0,1695.9299999999998
70.9876,1678.66
71.0,1678.4399999999998
72.0,1660.96
73.0,1643.5
74.0,1626.22
75.0,1608.8700000000001
76.0,1592.1499999999999
77.0,1575.38
78.0,1558.84
79.0,1542.26
80.0,1525.93
81.0,1510.1
82.0,1494.3999999999999
83.0,1478.9699999999998
84.0,1463.53
85.0,1448.38
86.0,1433.23
87.0,1418.3799999999999
88.0,1403.54
89.0,1388.85
90.0,1374.47
91.0,1360.6499999999999
92.0,1347.14
93.0,1333.66
94.0,1320.48
95.0,1307.32
96.0,1294.32
97.0,1281.6399999999999
98.0,1268.98
99.0,1256.6299999999999
100.0,1244.3
101.411,1227.94
102.0,1221.11
103.439,1204.89
104.0,1198.57
105.467,1182.4099999999999
106.0,1176.54
107.495,1160.6399999999999
108.0,1155.28
109.524,1139.56
110.00000000000001,1134.64
111.552,1119.6
112.00000000000001,1115.26
113.58,1100.3
113.99999999999999,1096.33
115.608,1081.69
115.99999999999999,1078.12
117.63699999999999,1063.69
118.0,1060.48
119.66499999999999,1046.26
120.0,1043.4
