E(MeV),xs(mb)
1.0e-11,215567.99999999997
1.03223e-11,212184.99999999997
1.06549e-11,208856.99999999997
1.0998399999999998e-11,205580.0
1.13527e-11,202357.0
1.1718599999999999e-11,199182.0
1.2096199999999998e-11,196059.0
1.24861e-11,192984.0
1.2888399999999999e-11,189959.0
1.3303799999999998e-11,186981.0
1.37325e-11,184050.0
1.41751e-11,181165.0
1.4631799999999997e-11,178327.0
1.51034e-11,175532.0
1.5590099999999998e-11,172782.0
1.6092599999999998e-11,170075.0
1.66111e-11,167412.0
1.71465e-11,164790.0
1.7699e-11,162210.0
1.8269399999999998e-11,159670.0
1.88581e-11,157171.0
1.94659e-11,154711.0
2.00931e-11,152290.0
2.0740699999999998e-11,149907.0
2.1408999999999998e-11,147562.0
2.2099099999999997e-11,145254.0
2.28111e-11,142983.0
2.3546399999999998e-11,140748.0
2.4305099999999997e-11,138548.0
2.50884e-11,136382.0
2.5896799999999997e-11,134252.0
2.67315e-11,132154.0
2.75928e-11,130091.0
2.8482199999999998e-11,128058.99999999999
2.93999e-11,126061.0
3.0347499999999995e-11,124093.00000000001
3.13253e-11,122157.0
3.2335e-11,120252.0
3.33769e-11,118377.0
3.44526e-11,116531.0
3.55627e-11,114714.99999999999
3.67089e-11,112928.0
3.7891799999999997e-11,111169.0
3.9113e-11,109437.99999999999
4.0373400000000003e-11,107734.0
4.1674599999999996e-11,106058.00000000001
4.3017399999999996e-11,104407.99999999999
4.440389999999999e-11,102785.0
4.58347e-11,101187.0
4.7311899999999994e-11,99614.7
4.883639999999999e-11,98067.7
5.0410399999999995e-11,96544.9
5.20348e-11,95046.70000000001
5.37119e-11,93572.1
5.54426e-11,92121.3
5.7229499999999995e-11,90693.40000000001
5.907359999999999e-11,89288.4
6.09775e-11,87905.70000000001
6.29424e-11,86545.2
6.497099999999999e-11,85206.3
6.70645e-11,83889.0
6.9226e-11,82592.5
7.145659999999999e-11,81316.90000000001
7.37596e-11,80061.5
7.61364e-11,78826.5
7.85902e-11,77611.0
8.11227e-11,76415.1
8.37372e-11,75238.2
8.643549999999999e-11,74080.4
8.922119999999998e-11,72941.0
9.209619999999999e-11,71820.0
9.506439999999999e-11,70716.8
9.81277e-11,69631.6
1.01291e-10,68563.40000000001
1.04554e-10,67512.9
1.07924e-10,66478.8
1.11402e-10,65461.799999999996
1.1499200000000001e-10,64460.8
1.1869700000000001e-10,63476.299999999996
1.22523e-10,62507.200000000004
1.26471e-10,61554.200000000004
1.30547e-10,60616.2
1.34754e-10,59693.6
1.3909700000000002e-10,58785.7
1.43579e-10,57892.700000000004
1.48207e-10,57013.8
1.52982e-10,56149.5
1.57913e-10,55298.9
1.6300100000000001e-10,54462.299999999996
1.68254e-10,53639.0
1.73676e-10,52829.3
1.79274e-10,52032.5
1.8505000000000002e-10,51248.899999999994
1.91014e-10,50477.7
1.97169e-10,49719.3
2.03524e-10,48973.1
2.1008200000000003e-10,48239.1
2.16853e-10,47516.9
2.2384e-10,46806.700000000004
2.31055e-10,46107.8
2.385e-10,45420.5
2.46187e-10,44744.299999999996
2.5412e-10,44079.2
2.6231e-10,43424.8
2.70762e-10,42781.3
2.7948900000000003e-10,42148.1
2.88494e-10,41525.4
2.9779300000000004e-10,40912.8
3.07388e-10,40310.3
3.1729500000000004e-10,39717.5
3.27519e-10,39134.5
3.38075e-10,38561.0
3.4896900000000003e-10,37997.0
3.6021600000000004e-10,37442.1
3.7182300000000004e-10,36896.4
3.83807e-10,36359.5
3.96174e-10,35831.6
4.08943e-10,35312.2
4.23015e-10,34767.6
4.37571e-10,34232.5
4.5262900000000006e-10,33706.8
4.68204e-10,33190.200000000004
4.84316e-10,32682.699999999997
5.009820000000001e-10,32184.1
5.182210000000001e-10,31694.2
5.360540000000001e-10,31212.8
5.545e-10,30739.899999999998
5.73581e-10,30275.2
5.933180000000001e-10,29818.699999999997
6.13735e-10,29370.1
6.34854e-10,28929.399999999998
6.56701e-10,28496.399999999998
6.79298e-10,28070.9
7.02674e-10,27652.899999999998
7.26854e-10,27242.1
7.51866e-10,26838.5
7.77738e-10,26442.0
8.04501e-10,26052.399999999998
8.32185e-10,25669.6
8.60821e-10,25293.399999999998
8.90443e-10,24923.8
9.210839999999999e-10,24560.7
9.527799999999999e-10,24203.800000000003
9.855660000000001e-10,23853.2
1.01948e-9,23508.6
1.05456e-9,23170.1
1.0908500000000002e-9,22837.399999999998
1.12839e-9,22510.500000000004
1.16722e-9,22189.3
1.20738e-9,21873.7
1.2489300000000002e-9,21563.500000000004
1.29191e-9,21258.7
1.3363600000000001e-9,20959.2
1.38235e-9,20664.8
1.4299200000000002e-9,20375.600000000002
1.4791200000000002e-9,20091.399999999998
1.53002e-9,19812.1
1.58267e-9,19537.6
1.6371300000000001e-9,19267.8
1.69705e-9,18986.3
1.75917e-9,18710.0
1.8235500000000002e-9,18438.7
1.8903000000000004e-9,18172.3
1.9594800000000004e-9,17910.9
2.0312e-9,17654.2
2.10554e-9,17402.3
2.18261e-9,17154.899999999998
2.26249e-9,16912.100000000002
2.3453e-9,16673.6
2.4311400000000004e-9,16439.600000000002
2.52013e-9,16209.800000000001
2.61236e-9,15984.199999999999
2.7079800000000004e-9,15762.7
2.80709e-9,15545.3
2.90983e-9,15331.8
3.01633e-9,15122.199999999999
3.12674e-9,14916.400000000001
3.24117e-9,14714.400000000001
3.3598100000000002e-9,14516.0
3.48277e-9,14321.2
3.6102500000000004e-9,14130.0
3.74238e-9,13942.300000000001
3.87936e-9,13757.900000000001
4.021340000000001e-9,13576.999999999998
4.1685400000000006e-9,13399.2
4.330250000000001e-9,13214.6
4.49825e-9,13033.5
4.67276e-9,12855.9
4.85404e-9,12681.7
5.0423500000000005e-9,12510.8
5.23797e-9,12343.2
5.44117e-9,12178.800000000001
5.65226e-9,12017.599999999999
5.871540000000001e-9,11859.5
6.099330000000001e-9,11704.300000000001
6.335950000000001e-9,11552.199999999999
6.58176e-9,11403.000000000002
6.837100000000001e-9,11256.6
7.1023400000000005e-9,11113.0
7.3778800000000006e-9,10972.2
7.6641e-9,10834.0
7.96143e-9,10698.5
8.28778e-9,10558.300000000001
8.62755e-9,10420.9
8.981210000000002e-9,10286.3
9.3494e-9,10154.4
9.73265e-9,10025.1
1.0131600000000001e-8,9898.45
1.0547e-8,9774.36
1.0979300000000002e-8,9652.75
1.1429400000000001e-8,9533.609999999999
1.1898e-8,9416.85
1.23857e-8,9302.45
1.28935e-8,9190.33
1.3422000000000001e-8,9080.49
1.40018e-8,8967.24
1.4606600000000001e-8,8856.38
1.52376e-8,8747.85
1.58958e-8,8641.619999999999
1.65825e-8,8537.64
1.72988e-8,8435.85
1.8046e-8,8336.2
1.88256e-8,8238.67
1.96388e-8,8143.2
2.04871e-8,8049.74
2.13721e-8,7958.26
2.23426e-8,7864.28
2.3357000000000002e-8,7772.389999999999
2.44176e-8,7682.52
2.52522e-8,7615.84
2.5299999999999998e-8,7612.12
2.6448800000000003e-8,7525.8
2.76497e-8,7441.41
2.89052e-8,7358.87
3.02176e-8,7278.18
3.1656499999999996e-8,7195.55
3.31639e-8,7114.84
3.47432e-8,7036.0
3.63976e-8,6958.97
3.81308e-8,6883.72
3.99465e-8,6810.21
4.1848700000000003e-8,6738.39
4.39344e-8,6665.09
4.61238e-8,6593.56
4.84225e-8,6523.75
5.0835600000000004e-8,6455.63
5.3369200000000004e-8,6389.160000000001
5.60287e-8,6324.3
5.88211e-8,6261.009999999999
6.18833e-8,6196.61
6.51048e-8,6133.83
6.8494e-8,6072.63
7.20597e-8,6012.97
7.5811e-8,5954.79
7.99263e-8,5895.74
8.42653e-8,5838.2300000000005
8.883940000000001e-8,5782.24
9.36623e-8,5727.7
9.89558e-8,5672.5
1.0454899999999999e-7,5618.79
1.10457e-7,5566.55
1.1669999999999999e-7,5515.73
1.23296e-7,5466.29
1.30539e-7,5416.400000000001
1.38209e-7,5367.9
1.4632899999999999e-7,5320.75
1.55254e-7,5273.240000000001
1.6472399999999999e-7,5227.12
1.74771e-7,5182.33
1.85431e-7,5138.849999999999
1.97158e-7,5095.150000000001
2.09626e-7,5052.7699999999995
2.2288399999999997e-7,5011.66
2.37481e-7,4970.43
2.53033e-7,4930.49
2.70175e-7,4890.53
2.88479e-7,4851.81
3.0802200000000003e-7,4814.320000000001
3.29585e-7,4776.87
3.52658e-7,4740.65
3.78146e-7,4704.53
4.0547399999999994e-7,4669.63
4.3569899999999994e-7,4634.89
4.68177e-7,4601.34
5.03075e-7,4568.95
5.4172e-7,4536.780000000001
5.845679999999999e-7,4504.83
6.30804e-7,4474.02
6.82137e-7,4443.49
7.376499999999999e-7,4414.07
7.99368e-7,4384.95
8.68082e-7,4356.18
9.42706e-7,4328.48
1.0207699999999998e-6,4302.74
1.1418299999999998e-6,4267.99
1.3320799999999998e-6,4222.98
1.64359e-6,4166.03
2.20579e-6,4094.03
3.0873599999999996e-6,4020.4199999999996
4.41313e-6,3949.6600000000003
6.3969099999999995e-6,3882.15
8.70612e-6,3834.67
1.033e-5,3821.91
1.17522e-5,3834.92
1.27827e-5,3869.92
1.3519500000000002e-5,3917.41
1.41993e-5,3987.21
1.4705100000000001e-5,4063.39
1.51229e-5,4148.259999999999
1.55526e-5,4263.89
1.58833e-5,4379.0
1.62202e-5,4527.37
1.64491e-5,4650.99
1.6681100000000002e-5,4800.08
1.6916500000000003e-5,4981.39
1.70955e-5,5144.16
1.7276200000000002e-5,5334.94
1.74585e-5,5559.9800000000005
1.76426e-5,5827.35
1.77671e-5,6035.53
1.7891500000000003e-5,6269.43
1.8017700000000002e-5,6536.74
1.81439e-5,6841.0599999999995
1.8271900000000004e-5,7193.870000000001
1.8399900000000003e-5,7598.96
1.8497300000000003e-5,7948.21
1.85946e-5,8338.91
1.86924e-5,8779.7
1.8791100000000004e-5,9281.599999999999
1.8889800000000003e-5,9850.48
1.8989500000000002e-5,10504.7
1.9056200000000002e-5,10995.0
1.9123000000000003e-5,11533.4
1.9189700000000004e-5,12126.1
1.9257400000000003e-5,12789.900000000001
1.9325100000000002e-5,13525.8
1.9392800000000002e-5,14344.2
1.94605e-5,15257.400000000001
1.9529100000000002e-5,16295.0
1.95806e-5,17157.5
1.9632e-5,18101.9
1.9683500000000002e-5,19139.1
1.9735000000000003e-5,20282.100000000002
1.9787200000000003e-5,21564.5
1.9839400000000002e-5,22988.8
1.98916e-5,24575.9
1.99438e-5,26350.699999999997
1.9996000000000003e-5,28343.0
2.0045700000000004e-5,30474.199999999997
2.00941e-5,32808.4
2.0126400000000004e-5,34526.3
2.01587e-5,36390.6
2.0191e-5,38417.8
2.0223200000000003e-5,40627.2
2.0255500000000003e-5,43041.0
2.0283500000000003e-5,45321.4
2.03192e-5,48502.6
2.0354800000000004e-5,52042.5
2.03904e-5,55997.3
2.0426000000000004e-5,60433.8
2.04498e-5,63698.4
2.0481500000000004e-5,68488.9
2.05111e-5,73498.59999999999
2.05408e-5,79089.09999999999
2.05705e-5,85353.99999999999
2.0590300000000002e-5,89960.40000000001
2.06101e-5,94955.8
2.06358e-5,102106.99999999999
2.06596e-5,109461.99999999999
2.0683300000000002e-5,117653.99999999999
2.0707100000000004e-5,126816.0
2.0722900000000004e-5,133541.0
2.0738800000000002e-5,140826.0
2.0754600000000003e-5,148734.0
2.0770400000000004e-5,157340.0
2.07862e-5,166730.0
2.0802100000000002e-5,177006.0
2.08179e-5,188285.0
2.08337e-5,200706.0
2.0849600000000004e-5,214434.0
2.08654e-5,229667.00000000003
2.08797e-5,244860.0
2.0892300000000003e-5,259717.99999999997
2.0905e-5,276029.0
2.09177e-5,293999.0
2.0930300000000002e-5,313875.0
2.0943000000000003e-5,335949.0
2.09557e-5,360571.0
2.09652e-5,380964.0
2.09747e-5,403237.0
2.09842e-5,427635.0
2.0993700000000002e-5,454438.00000000006
2.1003200000000002e-5,483967.0
2.1012700000000003e-5,516594.0
2.10222e-5,552745.0
2.10317e-5,592907.0
2.10412e-5,637635.0
2.1048300000000003e-5,674552.0
2.10573e-5,725969.0
2.1064e-5,767537.0
2.1070600000000005e-5,812548.0
2.1077300000000002e-5,861308.0
2.1083900000000003e-5,914146.0
2.10906e-5,971405.0
2.10972e-5,1.03345e6
2.1103900000000003e-5,1.10066e6
2.1110500000000004e-5,1.17343e6
2.1117200000000002e-5,1.25216e6
2.1123800000000003e-5,1.33726e6
2.11305e-5,1.42913e6
2.1137100000000005e-5,1.52819e6
2.1145700000000003e-5,1.66674e6
2.1152000000000003e-5,1.7779e6
2.11583e-5,1.89666e6
2.11647e-5,2.0232700000000002e6
2.11742e-5,2.22837e6
2.1183700000000002e-5,2.45213e6
2.1193200000000002e-5,2.69476e6
2.1202700000000003e-5,2.95608e6
2.1212200000000003e-5,3.23547e6
2.1221700000000004e-5,3.5318e6
2.12343e-5,3.9503e6
2.1250200000000002e-5,4.50285e6
2.1285e-5,5.75638e6
2.1297700000000004e-5,6.19156e6
2.13103e-5,6.5963e6
2.1323e-5,6.95797e6
2.13325e-5,7.19371e6
2.1342e-5,7.39388e6
2.13534e-5,7.58154e6
2.1363500000000003e-5,7.69606e6
2.13745e-5,7.76129e6
2.1380300000000003e-5,7.77053e6
2.13901e-5,7.74593e6
2.13996e-5,7.67469e6
2.14104e-5,7.53962e6
2.14212e-5,7.35042e6
2.14307e-5,7.14254e6
2.1443300000000002e-5,6.81326e6
2.1456000000000003e-5,6.43491e6
2.14687e-5,6.01976e6
2.14877e-5,5.35543e6
2.15162e-5,4.34297e6
2.1532000000000003e-5,3.80762e6
2.15447e-5,3.40546e6
2.15542e-5,3.12223e6
2.15637e-5,2.85627e6
2.1573200000000002e-5,2.60837e6
2.15827e-5,2.37885e6
2.15922e-5,2.16768e6
2.16017e-5,1.97446e6
2.1608000000000004e-5,1.85532e6
2.1614300000000004e-5,1.74362e6
2.1622900000000003e-5,1.60416e6
2.16295e-5,1.50426e6
2.16362e-5,1.41143e6
2.1642800000000002e-5,1.3253e6
2.1649500000000003e-5,1.24547e6
2.16561e-5,1.17154e6
2.1662800000000002e-5,1.10313e6
2.16694e-5,1.0398499999999999e6
2.16761e-5,981335.0
2.16827e-5,927233.0
2.1689400000000003e-5,877205.0
2.1696e-5,830934.0000000001
2.17027e-5,788116.0
2.1712100000000002e-5,732829.0
2.1720400000000003e-5,688750.0
2.1728700000000004e-5,648604.0
2.1737000000000002e-5,611981.0
2.17454e-5,578510.0
2.17537e-5,547860.0
2.1764800000000002e-5,510876.0
2.17758e-5,477773.99999999994
2.1786900000000003e-5,448033.00000000006
2.1798000000000004e-5,421209.0
2.1808700000000003e-5,397751.0
2.1819400000000003e-5,376368.0
2.1826500000000005e-5,363141.0
2.1840700000000002e-5,338871.0
2.1855000000000003e-5,317154.0
2.1869200000000004e-5,297628.0
2.1883499999999998e-5,279993.0
2.18978e-5,264003.0
2.1912e-5,249449.0
2.19278e-5,234751.00000000003
2.1943700000000005e-5,221412.0
2.19595e-5,209261.0
2.1975300000000003e-5,198157.0
2.1991200000000004e-5,187979.0
2.2007e-5,178623.0
2.2030800000000003e-5,165939.0
2.2050100000000004e-5,156630.0
2.2073100000000004e-5,146663.0
2.2096100000000003e-5,137689.0
2.2119000000000003e-5,129576.0
2.2142000000000002e-5,122214.0
2.2164900000000002e-5,115511.99999999999
2.21879e-5,109392.0
2.22109e-5,103786.0
2.2237e-5,97960.1
2.2266300000000004e-5,92044.09999999999
2.2295600000000004e-5,86696.9
2.23249e-5,81846.4
2.23541e-5,77431.5
2.2383400000000003e-5,73400.6
2.2412700000000003e-5,69709.5
2.2442000000000003e-5,66320.4
2.2476500000000004e-5,62678.3
2.2516e-5,58893.8
2.25556e-5,55483.6
2.2595200000000003e-5,52399.3
2.2634800000000002e-5,49599.9
2.2674400000000004e-5,47050.799999999996
2.2714e-5,44722.5
2.27535e-5,42589.7
2.28129e-5,39710.5
2.28723e-5,37161.9
2.2931700000000003e-5,34894.4
2.2991000000000004e-5,32867.5
2.3050400000000002e-5,31048.0
2.3110400000000005e-5,29393.5
2.3171400000000003e-5,27871.100000000002
2.32325e-5,26491.899999999998
2.32936e-5,25237.6
2.3375000000000002e-5,23733.8
2.3457100000000003e-5,22387.800000000003
2.35396e-5,21178.4
2.3622200000000006e-5,20094.9
2.3704800000000004e-5,19119.9
2.3788000000000003e-5,18233.2
2.38717e-5,17424.4
2.39974e-5,16346.8
2.4123600000000004e-5,15402.4
2.4251000000000002e-5,14566.1
2.4378400000000004e-5,13828.199999999999
2.4507e-5,13167.800000000001
2.4636200000000003e-5,12576.8
2.4765400000000002e-5,12048.099999999999
2.4940100000000002e-5,11417.8
2.5114800000000002e-5,10867.7
2.5292e-5,10377.199999999999
2.5469100000000003e-5,9944.380000000001
2.5648800000000004e-5,9555.130000000001
2.58284e-5,9208.37
2.6101700000000005e-5,8748.74
2.6377600000000003e-5,8352.76
2.6656100000000004e-5,8008.85
2.69371e-5,7707.9800000000005
2.72221e-5,7441.84
2.75099e-5,7206.16
2.7898000000000003e-5,6931.2
2.8291600000000002e-5,6693.2
2.86907e-5,6485.79
2.9299300000000003e-5,6220.82
2.9922200000000003e-5,5998.66
3.05569e-5,5811.06
3.12066e-5,5650.22
3.20934e-5,5469.24
3.300530000000001e-5,5317.910000000001
3.4181000000000004e-5,5160.580000000001
3.56482e-5,5006.35
3.74406e-5,4861.01
3.9598600000000004e-5,4726.29
4.21744e-5,4602.089999999999
4.491990000000001e-5,4499.23
4.65199e-5,4460.19
4.6973300000000006e-5,4457.27
4.763600000000001e-5,4470.570000000001
4.80885e-5,4505.4400000000005
4.835230000000001e-5,4545.89
4.857840000000001e-5,4601.950000000001
4.87479e-5,4664.76
4.891750000000001e-5,4755.49
4.9030500000000004e-5,4838.99
4.914360000000001e-5,4949.3099999999995
4.92538e-5,5093.69
4.9327300000000005e-5,5218.24
4.940070000000001e-5,5373.88
4.946570000000001e-5,5546.0
4.95222e-5,5730.45
4.95646e-5,5896.080000000001
4.960700000000001e-5,6091.25
4.9649400000000006e-5,6323.44
4.96912e-5,6598.71
4.97189e-5,6812.71
4.97466e-5,7057.99
4.97743e-5,7341.48
4.9802e-5,7672.33
4.982280000000001e-5,7958.910000000001
4.9843500000000005e-5,8286.060000000001
4.986430000000001e-5,8662.86
4.98851e-5,9101.19
4.99032e-5,9545.109999999999
4.99167e-5,9924.38
4.9930300000000005e-5,10351.0
4.994390000000001e-5,10833.4
4.99574e-5,11381.699999999999
4.9971e-5,12007.699999999999
4.99846e-5,12725.900000000001
4.999360000000001e-5,13264.1
5.00026e-5,13856.3
5.001170000000001e-5,14509.0
5.00207e-5,15229.0
5.002980000000001e-5,16024.199999999999
5.0038200000000005e-5,16845.5
5.00467e-5,17747.9
5.00552e-5,18739.5
5.0063700000000007e-5,19829.3
5.0072200000000005e-5,21026.8
5.008060000000001e-5,22342.1
5.008910000000001e-5,23785.9
5.0097600000000006e-5,25369.5
5.0106100000000005e-5,27104.9
5.01145e-5,29004.3
5.0123e-5,31080.5
5.0131500000000006e-5,33346.5
5.0140000000000004e-5,35815.700000000004
5.01485e-5,38501.2
5.015690000000001e-5,41416.399999999994
5.0165400000000006e-5,44574.100000000006
5.0173900000000004e-5,47986.899999999994
5.01824e-5,51666.4
5.019090000000001e-5,55623.5
5.01993e-5,59867.9
5.0207800000000004e-5,64407.9
5.02185e-5,70592.9
5.0230400000000006e-5,78002.90000000001
5.0242300000000005e-5,86018.2
5.0254100000000004e-5,94631.7
5.0266e-5,103824.0
5.027840000000001e-5,114040.00000000001
5.0292000000000006e-5,125806.0
5.0310100000000005e-5,142342.0
5.0340800000000004e-5,171868.0
5.036800000000001e-5,198073.0
5.038610000000001e-5,214801.99999999997
5.04041e-5,230343.0
5.0417700000000003e-5,240910.0
5.04313e-5,250314.0
5.04448e-5,258366.0
5.0458400000000005e-5,264898.0
5.047200000000001e-5,269773.0
5.04855e-5,272888.0
5.05004e-5,274201.0
5.05009e-5,274207.0
5.0514500000000006e-5,273395.0
5.05258e-5,271318.0
5.05371e-5,268001.0
5.0550600000000004e-5,262461.0
5.0564200000000006e-5,255335.0
5.057780000000001e-5,246778.0
5.05868e-5,240364.99999999997
5.06049e-5,226103.0
5.0623e-5,210340.99999999997
5.0650100000000005e-5,184998.0
5.0684e-5,152681.0
5.07044e-5,134010.0
5.072250000000001e-5,118330.0
5.0736900000000005e-5,106572.0
5.07478e-5,98270.3
5.07586e-5,90437.7
5.076730000000001e-5,84505.0
5.0777500000000006e-5,77971.2
5.07877e-5,71869.8
5.079780000000001e-5,66196.8
5.0808000000000006e-5,60943.899999999994
5.08182e-5,56098.8
5.08284e-5,51646.1
5.0838500000000005e-5,47568.299999999996
5.08465e-5,44643.2
5.085490000000001e-5,41736.5
5.0863400000000005e-5,39052.799999999996
5.08719e-5,36579.299999999996
5.088040000000001e-5,34303.3
5.08888e-5,32212.0
5.0897300000000005e-5,30292.9
5.09058e-5,28533.8
5.09143e-5,26922.899999999998
5.09228e-5,25448.6
5.0931200000000005e-5,24100.3
5.0942e-5,22557.0
5.09538e-5,21043.4
5.0965700000000006e-5,19708.2
5.0977600000000005e-5,18529.4
5.0989400000000003e-5,17487.3
5.10013e-5,16564.3
5.101320000000001e-5,15744.9
5.10251e-5,15015.7
5.1036900000000006e-5,14364.5
5.105270000000001e-5,13600.2
5.10665e-5,13019.8
5.108380000000001e-5,12374.300000000001
5.1101200000000005e-5,11812.800000000001
5.11186e-5,11320.300000000001
5.11302e-5,11024.5
5.1153300000000004e-5,10497.8
5.117650000000001e-5,10042.599999999999
5.119970000000001e-5,9645.24
5.12229e-5,9295.0
5.1246000000000004e-5,8983.88
5.1274300000000005e-5,8648.43
5.13026e-5,8353.17
5.134490000000001e-5,7971.33
5.13873e-5,7648.17
5.142970000000001e-5,7371.52
5.1472100000000005e-5,7132.39
5.152860000000001e-5,6860.32
5.15851e-5,6630.849999999999
5.164170000000001e-5,6435.13
5.172500000000001e-5,6194.530000000001
5.1805600000000004e-5,6004.030000000001
5.1886100000000005e-5,5845.0199999999995
5.19666e-5,5710.6
5.2074e-5,5561.099999999999
5.218420000000001e-5,5434.9
5.235380000000001e-5,5280.2699999999995
5.25233e-5,5160.08
5.27381e-5,5042.0
5.289640000000001e-5,4972.54
5.321290000000001e-5,4864.12
5.35882e-5,4770.71
5.415390000000001e-5,4672.5599999999995
5.47249e-5,4603.53
5.547360000000001e-5,4538.52
5.665300000000001e-5,4467.5599999999995
5.8671e-5,4387.1
6.20527e-5,4296.04
6.55414e-5,4225.96
6.59438e-5,4223.79
6.627070000000001e-5,4234.05
6.64254e-5,4260.66
6.64971e-5,4294.26
6.655740000000001e-5,4347.93
6.659760000000001e-5,4404.4800000000005
6.66379e-5,4483.67
6.667560000000001e-5,4582.56
6.67133e-5,4707.429999999999
6.676160000000001e-5,4903.25
6.68712e-5,5414.46
6.69115e-5,5572.4
6.69417e-5,5660.51
6.697180000000001e-5,5714.79
6.69994e-5,5731.0
6.70256e-5,5715.67
6.70523e-5,5670.35
6.70825e-5,5586.52
6.712270000000001e-5,5432.34
6.72379e-5,4893.87
6.72817e-5,4713.51
6.73194e-5,4584.27
6.73571e-5,4480.91
6.74049e-5,4384.2
6.74501e-5,4321.51
