E(MeV),xs(mb)
1.0e-11,1.56643e6
1.03223e-11,1.54181e6
1.06549e-11,1.5176e6
1.0998399999999998e-11,1.49375e6
1.13527e-11,1.47029e6
1.1718599999999999e-11,1.44719e6
1.2096199999999998e-11,1.42447e6
1.24861e-11,1.40209e6
1.2888399999999999e-11,1.38007e6
1.3303799999999998e-11,1.3584e6
1.37325e-11,1.33707e6
1.41751e-11,1.31607e6
1.4631799999999997e-11,1.29541e6
1.51034e-11,1.27507e6
1.5590099999999998e-11,1.25506e6
1.6092599999999998e-11,1.23535e6
1.66111e-11,1.21597e6
1.71465e-11,1.19688e6
1.7699e-11,1.1781e6
1.8269399999999998e-11,1.15961e6
1.88581e-11,1.14141e6
1.94659e-11,1.1235e6
2.00931e-11,1.10588e6
2.0740699999999998e-11,1.08853e6
2.1408999999999998e-11,1.07146e6
2.2099099999999997e-11,1.05465e6
2.28111e-11,1.0381100000000001e6
2.3546399999999998e-11,1.02183e6
2.4305099999999997e-11,1.0058100000000001e6
2.50884e-11,990039.0
2.5896799999999997e-11,974521.0
2.67315e-11,959245.0
2.75928e-11,944213.0
2.8482199999999998e-11,929416.0
2.93999e-11,914855.0
3.0347499999999995e-11,900521.0
3.13253e-11,886417.0
3.2335e-11,872533.0
3.33769e-11,858871.0000000001
3.44526e-11,845421.9999999999
3.55627e-11,832189.0
3.67089e-11,819162.0
3.7891799999999997e-11,806344.0
3.9113e-11,793726.0
4.0373400000000003e-11,781311.0
4.1674599999999996e-11,769089.0
4.3017399999999996e-11,757063.0
4.440389999999999e-11,745225.0
4.58347e-11,733577.0
4.7311899999999994e-11,722110.0
4.883639999999999e-11,710828.0
5.0410399999999995e-11,699722.0
5.20348e-11,688795.0
5.37119e-11,678038.0
5.54426e-11,667454.0
5.7229499999999995e-11,657036.0
5.907359999999999e-11,646785.0
6.09775e-11,636695.0
6.29424e-11,626766.0
6.497099999999999e-11,616994.0
6.70645e-11,607378.0
6.9226e-11,597913.0
7.145659999999999e-11,588600.0
7.37596e-11,579434.0
7.61364e-11,570415.0
7.85902e-11,561538.0
8.11227e-11,552803.0
8.37372e-11,544206.0
8.643549999999999e-11,535747.0
8.922119999999998e-11,527421.0
9.209619999999999e-11,519229.0
9.506439999999999e-11,511165.99999999994
9.81277e-11,503233.0
1.01291e-10,495424.00000000006
1.04554e-10,487744.0
1.07924e-10,480182.0
1.11402e-10,472743.99999999994
1.1499200000000001e-10,465421.99999999994
1.1869700000000001e-10,458219.0
1.22523e-10,451129.0
1.26471e-10,444155.00000000006
1.30547e-10,437289.99999999994
1.34754e-10,430537.0
1.3909700000000002e-10,423890.0
1.43579e-10,417352.0
1.48207e-10,410916.0
1.52982e-10,404585.0
1.57913e-10,398354.0
1.6300100000000001e-10,392225.0
1.68254e-10,386193.0
1.73676e-10,380259.0
1.79274e-10,374418.0
1.8505000000000002e-10,368674.0
1.91014e-10,363020.0
1.97169e-10,357458.0
2.03524e-10,351985.0
2.1008200000000003e-10,346602.0
2.16853e-10,341303.0
2.2384e-10,336092.0
2.31055e-10,330964.0
2.385e-10,325919.0
2.46187e-10,320955.0
2.5412e-10,316073.0
2.6231e-10,311268.0
2.70762e-10,306543.0
2.7948900000000003e-10,301893.0
2.88494e-10,297319.0
2.9779300000000004e-10,292819.0
3.07388e-10,288393.0
3.1729500000000004e-10,284037.0
3.27519e-10,279754.0
3.38075e-10,275539.0
3.4896900000000003e-10,271394.0
3.6021600000000004e-10,267316.0
3.7182300000000004e-10,263305.0
3.83807e-10,259358.99999999997
3.96174e-10,255478.0
4.08943e-10,251660.0
4.2212e-10,247905.0
4.3572499999999996e-10,244211.0
4.4976500000000005e-10,240578.0
4.6426100000000007e-10,237004.0
4.79221e-10,233489.0
4.94666e-10,230032.0
5.10605e-10,226632.0
5.270620000000001e-10,223287.0
5.440450000000001e-10,219998.0
5.6158e-10,216763.0
5.796750000000001e-10,213581.00000000003
5.98358e-10,210452.0
6.176389999999999e-10,207375.0
6.37545e-10,204348.00000000003
6.58089e-10,201371.0
6.79298e-10,198444.0
7.01188e-10,195565.0
7.237860000000001e-10,192734.0
7.47109e-10,189950.0
7.71188e-10,187212.0
7.97725e-10,184342.0
8.251760000000001e-10,181522.0
8.53571e-10,178753.0
8.829430000000001e-10,176032.0
9.13327e-10,173360.0
9.44755e-10,170735.0
9.772650000000001e-10,168157.0
1.0108900000000002e-9,165625.0
1.04568e-9,163137.0
1.0816600000000002e-9,160694.0
1.1188800000000002e-9,158295.0
1.15739e-9,155938.0
1.1972100000000003e-9,153623.0
1.23841e-9,151349.0
1.28103e-9,149115.0
1.3251100000000002e-9,146922.0
1.3707100000000001e-9,144767.0
1.41787e-9,142651.0
1.4666600000000002e-9,140572.0
1.5171300000000001e-9,138531.0
1.56934e-9,136525.0
1.6233400000000001e-9,134556.0
1.6792000000000002e-9,132621.0
1.7369900000000002e-9,130721.0
1.7967600000000001e-9,128855.00000000001
1.85859e-9,127021.99999999999
1.92254e-9,125221.0
1.9887e-9,123452.0
2.05714e-9,121715.0
2.1279200000000002e-9,120009.00000000001
2.2011500000000004e-9,118332.0
2.27689e-9,116686.0
2.35524e-9,115069.0
2.43629e-9,113480.0
2.52013e-9,111920.0
2.6068500000000004e-9,110386.99999999999
2.70225e-9,108788.0
2.80116e-9,107219.0
2.90368e-9,105678.99999999999
3.0099600000000002e-9,104168.0
3.12012e-9,102686.00000000001
3.23433e-9,101231.0
3.3527000000000002e-9,99803.59999999999
3.4754200000000004e-9,98402.6
3.60262e-9,97028.0
3.7344800000000005e-9,95678.8
3.87116e-9,94354.9
4.01286e-9,93055.5
4.159720000000001e-9,91780.5
4.31198e-9,90529.0
4.46979e-9,89300.9
4.6334e-9,88095.5
4.8029700000000004e-9,86912.7
4.9787800000000005e-9,85751.6
5.16099e-9,84612.20000000001
5.3499e-9,83493.7
5.545700000000001e-9,82396.1
5.74869e-9,81318.59999999999
5.9590800000000005e-9,80261.20000000001
6.19027e-9,79162.9
6.43042e-9,78086.0
6.679890000000001e-9,77030.1
6.939030000000001e-9,75994.8
7.2082300000000004e-9,74979.7
7.48788e-9,73984.4
7.77837e-9,73008.5
8.08013e-9,72051.5
8.3936e-9,71113.2
8.71923e-9,70193.2
9.05749e-9,69291.0
9.40888e-9,68406.3
9.7739e-9,67538.8
1.0153099999999999e-8,66688.2
1.0547e-8,65854.0
1.09561e-8,65035.99999999999
1.14053e-8,64189.7
1.1872799999999999e-8,63360.8
1.23596e-8,62548.700000000004
1.2866200000000002e-8,61753.200000000004
1.33937e-8,60973.9
1.39427e-8,60210.600000000006
1.45143e-8,59462.700000000004
1.51092e-8,58730.1
1.5728700000000002e-8,58012.4
1.63734e-8,57309.299999999996
1.70447e-8,56620.5
1.77433e-8,55945.7
1.85098e-8,55250.2
1.9309400000000003e-8,54569.5
2.0143499999999998e-8,53903.4
2.10136e-8,53251.5
2.1921400000000003e-8,52613.5
2.2868300000000003e-8,51989.1
2.38562e-8,51378.1
2.48867e-8,50780.0
2.52522e-8,50576.8
2.5299999999999998e-8,50550.6
2.6392899999999998e-8,49970.100000000006
2.7533e-8,49402.100000000006
2.87832e-8,48818.5
3.00901e-8,48248.100000000006
3.14564e-8,47690.4
3.2884600000000005e-8,47145.1
3.43778e-8,46611.9
3.59387e-8,46090.7
3.7570600000000004e-8,45581.1
3.9276399999999996e-8,45082.899999999994
4.11467e-8,44572.799999999996
4.3106099999999994e-8,44074.600000000006
4.51587e-8,43587.9
4.7309099999999996e-8,43112.6
4.9561900000000005e-8,42648.4
5.1922e-8,42194.9
5.4394400000000006e-8,41751.899999999994
5.7105300000000004e-8,41299.700000000004
5.995110000000001e-8,40858.600000000006
6.2939e-8,40428.100000000006
6.60755e-8,40008.2
6.936860000000001e-8,39598.3
7.282549999999999e-8,39198.5
7.661660000000001e-8,38791.6
8.060520000000001e-8,38395.0
8.480130000000001e-8,38008.4
8.9216e-8,37631.6
9.38604e-8,37264.2
9.89558e-8,36891.3
1.0432699999999999e-7,36528.200000000004
1.09991e-7,36174.6
1.15962e-7,35830.2
1.2225699999999998e-7,35494.8
1.29167e-7,35155.3
1.36467e-7,34825.0
1.4417899999999998e-7,34503.7
1.5232799999999999e-7,34191.2
1.61277e-7,33875.6
1.70753e-7,33568.9
1.80785e-7,33270.8
1.91407e-7,32981.0
2.0308199999999997e-7,32689.0
2.1546899999999998e-7,32405.4
2.2861199999999998e-7,32130.100000000002
2.43069e-7,31853.3
2.58441e-7,31584.699999999997
2.74784e-7,31324.2
2.9278e-7,31062.8
3.11954e-7,30809.5
3.32385e-7,30564.0
3.54903e-7,30318.2
3.78946e-7,30080.100000000002
4.0547399999999994e-7,29842.0
4.3385999999999994e-7,29611.6
4.64233e-7,29388.7
4.97785e-7,29166.2
5.3376e-7,28950.999999999996
5.73547e-7,28736.600000000002
6.163e-7,28529.399999999998
6.636429999999999e-7,28323.2
7.14619e-7,28124.2
7.71142e-7,27926.3
8.32136e-7,27735.1
8.998559999999999e-7,27545.3
9.75146e-7,27357.100000000002
1.0571799999999999e-6,27174.7
1.19084e-6,26916.899999999998
1.38926e-6,26601.9
1.7262299999999999e-6,26188.4
2.33293e-6,25665.9
3.1974799999999998e-6,25165.1
4.50674e-6,24654.600000000002
6.48716e-6,24122.3
9.60318e-6,23524.600000000002
1.4723000000000001e-5,22784.5
2.2730500000000002e-5,21858.5
3.43626e-5,20723.1
4.91186e-5,19466.5
6.54581e-5,18230.8
8.364670000000001e-5,16995.899999999998
0.00010320800000000002,15805.499999999998
0.00012382500000000001,14676.7
0.000145468,13612.2
0.00016618,12693.7
0.000188512,11791.5
0.00021234600000000003,10923.8
0.00023753000000000004,10098.1
0.000263852,9321.580000000002
0.00028900000000000003,8653.029999999999
0.000312157,8090.360000000001
0.00033953000000000005,7483.679999999999
0.000366717,6937.96
0.00039332600000000005,6452.099999999999
0.000420177,6004.98
0.0004417360000000001,5679.02
0.000449371,5581.8099999999995
0.000453189,5557.67
0.000454761,5569.82
0.000455614,5592.82
0.000456468,5642.820000000001
0.000456917,5691.11
0.00045736600000000007,5770.04
0.000457703,5866.5599999999995
0.000457928,5962.06
0.000458096,6058.84
0.000458264,6185.82
0.00045841900000000006,6338.07
0.00045857400000000006,6534.23
0.000458678,6694.759999999999
0.000458794,6909.7699999999995
0.000458911,7164.79
0.00045904600000000006,7513.78
0.000459181,7924.85
0.00045931499999999996,8397.919999999998
0.00045945000000000003,8927.77
0.00045963000000000004,9701.77
0.000459899,10906.6
0.000460034,11466.8
0.00046016899999999996,11955.499999999998
0.000460259,12225.6
0.00046034800000000007,12441.3
0.000460447,12607.699999999999
0.000460537,12689.1
0.00046059700000000004,12704.9
0.00046066300000000004,12686.3
0.000460757,12594.9
0.00046085200000000004,12430.4
0.000460973,12121.1
0.00046109400000000005,11718.599999999999
0.000461175,11409.0
0.00046135500000000004,10642.9
0.00046162400000000005,9431.41
0.000461759,8856.54
0.0004618940000000001,8327.93
0.000462028,7856.46
0.00046216299999999997,7446.88
0.00046225300000000003,7208.26
0.00046237899999999996,6918.26
0.00046250400000000003,6675.57
0.00046263,6474.599999999999
0.000462756,6309.370000000001
0.000462907,6149.46
0.000463059,6023.76
0.00046326099999999997,5896.15
0.000463463,5801.36
0.000463789,5693.44
0.00046423800000000006,5597.22
0.000464844,5516.35
0.00046560800000000006,5452.860000000001
0.000467113,5379.76
0.000468235,5344.41
0.000472278,5259.629999999999
0.00048395500000000005,5088.219999999999
0.0005109040000000001,4746.67
0.000540352,4407.45
0.000571497,4079.27
0.0006043260000000001,3763.54
0.0006347120000000001,3496.46
0.000666507,3239.48
0.000695703,3020.15
0.000725566,2814.01
0.0007591230000000001,2598.5499999999997
0.0007910640000000001,2410.93
0.0008246029999999999,2227.46
0.0008660660000000001,2021.0300000000002
0.000903241,1852.03
0.0009404000000000001,1696.61
0.000976301,1558.53
0.00101292,1429.3700000000001
0.0010351,1359.1
0.0010428,1339.8000000000002
0.00104732,1334.43
0.0010502100000000002,1339.06
0.00105174,1348.46
0.00105287,1362.48
0.00105367,1379.28
0.00105436,1402.48
0.0010548299999999999,1425.59
0.00105518,1449.51
0.00105554,1484.28
0.00105579,1516.65
0.00105598,1547.59
0.00105616,1586.2
0.00105634,1633.2199999999998
0.00105651,1688.32
0.0010566800000000002,1756.96
0.0010567999999999999,1811.8700000000001
0.00105691,1875.38
0.00105702,1948.69
0.00105714,2033.0900000000001
0.0010572399999999999,2121.66
0.00105734,2212.58
0.00105743,2313.87
0.00105753,2426.25
0.00105762,2550.37
0.00105772,2686.78
0.00105781,2835.88
0.00105791,2997.91
0.0010580099999999999,3190.2400000000002
0.00105812,3416.5800000000004
0.00105824,3660.0299999999997
0.00105841,4053.7599999999998
0.0010585899999999999,4503.2699999999995
0.0010589500000000001,5434.88
0.00105913,5878.17
0.0010592800000000001,6201.870000000001
0.0010594200000000002,6485.599999999999
0.00105955,6692.69
0.00105967,6854.77
0.0010597900000000001,6957.360000000001
0.0010599000000000001,7017.48
0.0010600000000000002,7034.01
0.00106013,7004.29
0.00106024,6935.17
0.0010603700000000001,6800.33
0.0010605,6617.28
0.00106062,6394.3
0.00106077,6095.63
0.0010609299999999999,5716.9400000000005
0.0010612,5052.1900000000005
0.00106147,4354.0599999999995
0.00106165,3912.21
0.00106174,3703.44
0.0010618799999999999,3400.5
0.00106198,3190.28
0.00106209,2995.4700000000003
0.00106219,2816.36
0.0010623,2652.93
0.0010624100000000002,2499.29
0.00106252,2361.56
0.00106262,2238.83
0.00106273,2130.08
0.00106284,2034.18
0.00106295,1949.97
0.00106306,1876.2700000000002
0.00106317,1811.94
0.00106328,1753.85
0.0010634,1703.56
0.00106356,1640.49
0.0010637300000000001,1589.57
0.0010639,1548.25
0.00106407,1514.4599999999998
0.00106432,1475.0
0.0010645700000000001,1444.5600000000002
0.00106491,1413.54
0.00106524,1389.92
0.00106583,1359.8
0.0010662400000000002,1343.8600000000001
0.00106707,1320.35
0.00106818,1299.3
0.00106928,1284.5800000000002
0.0010714300000000002,1265.01
0.00107539,1242.1
0.00108082,1219.96
0.0010944000000000001,1176.0
0.00112338,1093.8600000000001
0.0011553,1010.64
0.00118813,931.5229999999999
0.00121336,874.041
0.00124784,800.1279999999999
0.00128329,729.898
0.00131052,679.682
0.00134899,613.822
0.0013761600000000002,570.512
0.00140332,530.084
0.0014322999999999998,489.9
0.00144442,473.464
0.00147647,433.225
0.00150816,396.597
0.0015319300000000001,371.19300000000004
0.00155569,347.334
0.0015794600000000002,325.24
0.00160322,304.618
0.00163001,283.412
0.0016568000000000002,264.004
0.0016746600000000001,252.198
0.00169252,241.24599999999998
0.00171038,231.144
0.00173467,218.82999999999998
0.00175253,210.71900000000002
0.00176396,205.899
0.00178182,199.166
0.00179968,193.27
0.0018175399999999999,188.224
0.0018354,184.03400000000002
0.00185326,180.69
0.00187112,178.207
0.0018889800000000002,176.591
0.0019134500000000001,175.786
0.00192457,175.993
0.0019423600000000002,177.037
0.00196016,178.98499999999999
0.00197796,181.856
0.00199575,185.668
0.00201355,190.441
0.0020313400000000004,196.196
0.00204914,202.95700000000002
0.00206694,210.748
0.00208473,219.598
0.00210253,229.537
0.00212032,240.59900000000002
0.00213812,252.819
0.00215592,266.236
0.0021737099999999997,280.89
0.0021895,294.964
0.0022052900000000004,310.087
0.0022210700000000003,326.293
0.0022368600000000002,343.622
0.00225265,362.118
0.00226844,381.825
0.0022921200000000004,413.882
0.0023079999999999997,436.989
0.00232396,461.65599999999995
0.00234792,501.361
0.00236388,529.919
0.00238193,564.231
0.0023999700000000004,600.827
0.0024180100000000004,639.853
0.00244323,698.874
0.00246474,753.335
0.00248626,812.4459999999999
0.00250372,864.03
0.0025139999999999997,895.3580000000001
0.00253457,962.524
0.0025526100000000003,1025.76
0.0025706600000000002,1093.3600000000001
0.00259366,1186.82
0.0026094499999999997,1255.78
0.00262479,1326.8
0.00264463,1425.19
0.0026653799999999997,1537.4699999999998
0.00268613,1661.0
0.00269876,1744.78
0.00270384,1784.22
0.00270639,1809.6399999999999
0.00270811,1835.68
0.0027089699999999998,1858.72
0.0027096100000000003,1887.84
0.0027100300000000004,1917.8500000000001
0.0027103500000000003,1948.74
0.00271067,1989.12
0.00271094,2032.48
0.00271121,2085.66
0.00271148,2149.85
0.0027117499999999998,2225.8900000000003
0.00271209,2338.0
0.00271243,2467.8900000000003
0.0027128,2626.1
0.00271359,2981.41
0.00271395,3123.65
0.0027142200000000003,3211.25
0.00271449,3277.05
0.00271475,3315.69
0.002715,3329.64
0.00271521,3322.8399999999997
0.0027154699999999998,3290.48
0.00271574,3231.7200000000003
0.00271601,3150.65
0.0027161900000000003,3086.53
0.00271655,2941.22
0.0027173500000000003,2593.55
0.00271771,2454.23
0.0027180399999999997,2336.57
0.00271838,2237.4100000000003
0.0027187,2161.8599999999997
0.0027189700000000002,2109.42
0.0027192400000000004,2067.22
0.00271951,2033.9399999999998
0.0027198699999999997,2001.0300000000002
0.00272038,1971.32
0.00272071,1959.51
0.00272137,1946.72
0.00272226,1941.83
0.00272404,1948.1599999999999
0.0027265600000000003,1972.54
0.0027282,1998.3500000000001
0.0027294999999999997,2031.1499999999999
0.0027302800000000003,2063.72
0.0027307100000000003,2090.3399999999997
0.00273114,2127.7599999999998
0.0027314600000000002,2166.46
0.00273178,2218.1099999999997
0.00273207,2279.42
0.0027323,2339.6
0.00273252,2412.88
0.00273275,2501.51
0.00273298,2607.7599999999998
0.0027332000000000003,2733.79
0.00273338,2845.43
0.0027335500000000004,2970.5699999999997
0.00273367,3061.73
0.0027339000000000005,3262.9
0.00273413,3488.78
0.0027343199999999997,3690.09
0.0027346,4017.18
0.002735,4521.01
0.00273546,5098.89
0.00273574,5426.63
0.00273602,5716.2699999999995
0.0027361900000000003,5872.56
0.0027363599999999997,5997.12
0.00273659,6127.09
0.0027368,6197.8
0.0027370000000000003,6220.23
0.00273718,6204.259999999999
0.00273738,6144.72
0.00273757,6045.950000000001
0.0027378,5890.19
0.00273798,5728.85
0.00273826,5443.13
0.00273845,5230.53
0.00273882,4774.82
0.00273926,4219.2699999999995
0.00273952,3906.28
0.00273976,3650.6
0.0027399900000000003,3416.66
0.00274022,3206.77
0.00274039,3065.75
0.00274057,2938.75
0.00274074,2825.4100000000003
0.00274091,2725.1400000000003
0.0027411500000000004,2610.37
0.00274135,2524.9700000000003
0.00274162,2433.6099999999997
0.0027418900000000003,2361.97
0.00274216,2306.4399999999996
0.0027423400000000002,2276.7400000000002
0.0027427000000000003,2231.1299999999997
0.00274309,2196.7599999999998
0.00274349,2173.63
0.00274401,2153.87
0.0027448000000000004,2137.63
0.00274602,2127.48
0.00274731,2125.5099999999998
0.00274998,2133.4900000000002
0.00275451,2161.0299999999997
0.00276551,2248.2700000000004
0.00277845,2364.02
0.00279178,2493.15
0.00280552,2637.41
0.0028192499999999997,2791.82
0.00283298,2958.5099999999998
0.00283985,3045.89
0.00285554,3261.6200000000003
0.0028712399999999997,3498.7200000000003
0.0028869300000000002,3760.38
0.0029065500000000004,4127.3
0.0029183200000000003,4372.3099999999995
0.0029300899999999998,4639.59
0.00294187,4930.469999999999
0.00295364,5249.85
0.00296541,5599.76
0.0029771800000000003,5986.83
0.00298895,6414.12
0.0030007199999999997,6890.87
0.0030085700000000003,7238.7300000000005
0.00301642,7614.110000000001
0.00302426,8020.15
0.0030321099999999998,8460.419999999998
0.0030399600000000004,8939.05
0.00304781,9460.779999999999
0.00305565,10031.1
0.0030635,10656.5
0.00307135,11344.5
0.00307527,11712.199999999999
0.00308312,12510.699999999999
0.00309097,13395.1
0.0030983200000000003,14315.800000000001
0.00310568,15339.7
0.0031113499999999997,16208.199999999999
0.00311701,17155.0
0.0031228500000000004,18226.100000000002
0.00312903,19472.6
0.00313521,20846.8
0.00314139,22382.1
0.00314757,24098.3
0.00315169,25357.1
0.00315571,26685.0
0.00315963,28084.699999999997
0.00316356,29598.399999999998
0.00316748,31238.600000000002
0.0031714000000000004,33019.1
0.00317533,34956.1
0.0031792500000000002,37067.5
0.00318317,39374.3
0.0031871,41900.00000000001
0.00319102,44671.8
0.0031949500000000002,47721.0
0.00319887,51083.4
0.00320279,54800.3
0.0032067199999999997,58919.6
0.0032106400000000003,63496.2
0.0032135799999999997,67266.7
0.00321653,71360.3
0.00321947,75810.8
0.00322241,80655.59999999999
0.00322535,85935.90000000001
0.0032283,91697.5
0.0032312400000000002,97990.1
0.0032341799999999997,104868.0
0.00323713,112389.99999999999
0.00324007,120618.0
0.00324301,129616.0
0.00324595,139449.0
0.0032489,150180.0
0.00325184,161866.0
0.0032547799999999997,174550.0
0.00325772,188257.0
0.0032606700000000002,202979.00000000003
0.00326464,224370.0
0.00326979,254247.99999999997
0.0032780300000000004,302890.0
0.00328188,323620.0
0.00328455,336288.0
0.0032872300000000004,346816.0
0.00328991,354744.0
0.00329259,359723.0
0.0032948400000000003,361452.0
0.00329531,361518.0
0.00329714,360810.0
0.00329896,358609.0
0.0033017,352654.0
0.00330444,343803.0
0.0033071700000000003,332476.0
0.00330991,319289.0
0.00331403,297124.0
0.00332433,238537.0
0.00332835,217051.00000000003
0.00333228,197638.0
0.0033352200000000003,184179.0
0.0033381599999999997,171685.0
0.0033411,160140.0
0.0033440500000000003,149507.0
0.0033469899999999998,139738.0
0.00334993,130775.0
0.00335287,122559.0
0.0033558200000000002,115030.00000000001
0.00335876,108130.0
0.0033617,101804.0
0.0033646500000000003,96001.3
0.0033675899999999997,90674.4
0.00336955,87365.6
