E(MeV),xs(mb)
1.0e-11,4.39764e6
1.03223e-11,4.32847e6
1.06549e-11,4.26042e6
1.0998399999999998e-11,4.1934199999999995e6
1.13527e-11,4.12749e6
1.1718599999999999e-11,4.0625799999999995e6
1.2096199999999998e-11,3.99871e6
1.24861e-11,3.93582e6
1.2888399999999999e-11,3.87395e6
1.3303799999999998e-11,3.81303e6
1.37325e-11,3.75309e6
1.41751e-11,3.69408e6
1.4631799999999997e-11,3.63601e6
1.51034e-11,3.57884e6
1.5590099999999998e-11,3.52258e6
1.6092599999999998e-11,3.4672e6
1.66111e-11,3.4127e6
1.71465e-11,3.35905e6
1.7699e-11,3.30625e6
1.8269399999999998e-11,3.25427e6
1.88581e-11,3.20313e6
1.94659e-11,3.15278e6
2.00931e-11,3.10323e6
2.0740699999999998e-11,3.05445e6
2.1408999999999998e-11,3.00645e6
2.2099099999999997e-11,2.9592e6
2.28111e-11,2.9127e6
2.3546399999999998e-11,2.86692e6
2.4305099999999997e-11,2.82188e6
2.50884e-11,2.77753e6
2.5896799999999997e-11,2.7339e6
2.67315e-11,2.69094e6
2.75928e-11,2.64866e6
2.8482199999999998e-11,2.60705e6
2.93999e-11,2.5661e6
3.0347499999999995e-11,2.52578e6
3.13253e-11,2.48611e6
3.2335e-11,2.44706e6
3.33769e-11,2.40863e6
3.44526e-11,2.37079e6
3.55627e-11,2.33356e6
3.67089e-11,2.29691e6
3.7891799999999997e-11,2.26085e6
3.9113e-11,2.22535e6
4.0373400000000003e-11,2.19041e6
4.1674599999999996e-11,2.15602e6
4.3017399999999996e-11,2.12217e6
4.440389999999999e-11,2.08886e6
4.58347e-11,2.05607e6
4.7311899999999994e-11,2.0238e6
4.883639999999999e-11,1.99204e6
5.0410399999999995e-11,1.96077e6
5.20348e-11,1.93001e6
5.37119e-11,1.89972e6
5.54426e-11,1.86992e6
5.7229499999999995e-11,1.84058e6
5.907359999999999e-11,1.81172e6
6.09775e-11,1.7833e6
6.29424e-11,1.75533e6
6.497099999999999e-11,1.7278e6
6.70645e-11,1.70071e6
6.9226e-11,1.67405e6
7.145659999999999e-11,1.6478e6
7.37596e-11,1.62197e6
7.61364e-11,1.59655e6
7.85902e-11,1.57153e6
8.11227e-11,1.54691e6
8.37372e-11,1.52267e6
8.643549999999999e-11,1.49882e6
8.922119999999998e-11,1.47534e6
9.209619999999999e-11,1.45224e6
9.506439999999999e-11,1.4295e6
9.81277e-11,1.40712e6
1.01291e-10,1.38508e6
1.04554e-10,1.36341e6
1.07924e-10,1.34207e6
1.11402e-10,1.32107e6
1.1499200000000001e-10,1.3004e6
1.1869700000000001e-10,1.28007e6
1.22523e-10,1.26004e6
1.26471e-10,1.24035e6
1.30547e-10,1.22095e6
1.34754e-10,1.20187e6
1.3909700000000002e-10,1.18309e6
1.43579e-10,1.16461e6
1.48207e-10,1.14641e6
1.52982e-10,1.12851e6
1.57913e-10,1.11089e6
1.6300100000000001e-10,1.09355e6
1.68254e-10,1.07648e6
1.73676e-10,1.05969e6
1.79274e-10,1.0431600000000001e6
1.8505000000000002e-10,1.0268900000000001e6
1.91014e-10,1.01088e6
1.97169e-10,995123.0000000001
2.03524e-10,979613.9999999999
2.1008200000000003e-10,964356.0000000001
2.16853e-10,949335.0
2.2384e-10,934556.0000000001
2.31055e-10,920008.0
2.385e-10,905695.0
2.46187e-10,891605.0
2.5412e-10,877741.9999999999
2.6231e-10,864096.0
2.70762e-10,850670.0
2.7948900000000003e-10,837454.0
2.88494e-10,824451.0
2.9779300000000004e-10,811651.0
3.07388e-10,799058.0
3.1729500000000004e-10,786662.0
3.27519e-10,774465.0
3.38075e-10,762460.0
3.4896900000000003e-10,750648.0
3.6021600000000004e-10,739022.0
3.7182300000000004e-10,727583.0
3.83807e-10,716323.0
3.96174e-10,705245.0
4.08943e-10,694341.0
4.2212e-10,683613.0
4.3572499999999996e-10,673053.0
4.4976500000000005e-10,662663.0
4.6426100000000007e-10,652437.0
4.79221e-10,642375.0
4.94666e-10,632472.0
5.10605e-10,622728.0
5.270620000000001e-10,613138.0
5.440450000000001e-10,603702.0
5.6158e-10,594414.0
5.796750000000001e-10,585277.0
5.98358e-10,576283.0
6.176389999999999e-10,567434.0
6.37545e-10,558724.0
6.58089e-10,550155.0
6.79298e-10,541721.0
7.01188e-10,533423.0
7.237860000000001e-10,525255.0
7.47109e-10,517218.99999999994
7.71188e-10,509310.0
7.960380000000001e-10,501528.0
8.21693e-10,493868.0
8.48171e-10,486333.00000000006
8.75507e-10,478915.0
9.037190000000002e-10,471617.99999999994
9.32845e-10,464435.0
9.62904e-10,457368.00000000006
9.93937e-10,450413.0
1.0259700000000001e-9,443569.0
1.05903e-9,436833.0
1.09316e-9,430206.0
1.12839e-9,423683.00000000006
1.16475e-9,417265.0
1.2022900000000002e-9,410947.99999999994
1.2410300000000002e-9,404732.99999999994
1.28103e-9,398616.0
1.3223100000000002e-9,392597.0
1.36492e-9,386673.0
1.4089000000000002e-9,380844.0
1.4543100000000001e-9,375108.0
1.5011699999999999e-9,369463.0
1.5495600000000002e-9,363907.0
1.5994900000000002e-9,358440.0
1.6510400000000001e-9,353060.0
1.7042400000000001e-9,347766.0
1.75917e-9,342555.0
1.81585e-9,337428.0
1.87438e-9,332382.0
1.9347700000000003e-9,327417.0
1.99713e-9,322529.0
2.06148e-9,317721.0
2.1279200000000002e-9,312987.0
2.19649e-9,308330.0
2.26728e-9,303746.0
2.3403400000000002e-9,299236.0
2.4157700000000002e-9,294796.0
2.49362e-9,290428.0
2.5739800000000002e-9,286128.0
2.65692e-9,281897.0
2.7425500000000002e-9,277733.0
2.8309300000000003e-9,273636.0
2.92217e-9,269602.0
3.01633e-9,265634.0
3.11354e-9,261728.0
3.21387e-9,257884.0
3.3174500000000004e-9,254100.0
3.42435e-9,250378.0
3.53471e-9,246713.0
3.6563500000000005e-9,242869.0
3.78217e-9,239089.99999999997
3.91231e-9,235374.00000000003
4.0469400000000005e-9,231721.99999999997
4.1862e-9,228131.0
4.330250000000001e-9,224600.0
4.47926e-9,221130.0
4.6334e-9,217716.99999999997
4.7928400000000006e-9,214363.0
4.95777e-9,211065.0
5.128370000000001e-9,207823.0
5.3048400000000005e-9,204635.0
5.487390000000001e-9,201501.99999999997
5.6762200000000005e-9,198421.0
5.871540000000001e-9,195392.0
6.07359e-9,192414.0
6.28259e-9,189487.0
6.49878e-9,186609.0
6.7224100000000006e-9,183779.0
6.9537400000000004e-9,180997.0
7.19302e-9,178262.0
7.440540000000001e-9,175573.0
7.696580000000001e-9,172930.0
7.96143e-9,170331.0
8.235390000000001e-9,167775.0
8.51878e-9,165263.0
8.81192e-9,162794.0
9.11515e-9,160365.0
9.42882e-9,157978.0
9.753270000000001e-9,155631.0
1.0088900000000001e-8,153324.0
1.0436099999999999e-8,151055.0
1.0795200000000001e-8,148825.0
1.11667e-8,146632.0
1.15509e-8,144477.0
1.1948399999999999e-8,142357.0
1.23596e-8,140273.0
1.27849e-8,138225.0
1.3224800000000002e-8,136210.0
1.36799e-8,134230.0
1.41506e-8,132283.0
1.46376e-8,130369.0
1.51413e-8,128487.0
1.56623e-8,126636.0
1.62012e-8,124817.0
1.67588e-8,123028.0
1.73354e-8,121269.99999999999
1.7931999999999998e-8,119541.00000000001
1.8549e-8,117841.0
1.91873e-8,116170.0
1.98476e-8,114526.0
2.05306e-8,112911.0
2.1237e-8,111323.0
2.19678e-8,109761.0
2.27238e-8,108226.0
2.35057e-8,106717.0
2.43146e-8,105233.0
2.52045e-8,103684.0
2.52522e-8,103603.0
2.5299999999999998e-8,103522.0
2.6226099999999998e-8,102003.0
2.71859e-8,100512.0
2.8181e-8,99046.2
2.9212400000000002e-8,97607.2
3.0281600000000004e-8,96193.7
3.13899e-8,94805.49999999999
3.2538900000000006e-8,93441.9
3.37297e-8,92102.79999999999
3.4964300000000004e-8,90787.4
3.6244000000000003e-8,89495.7
3.7570600000000004e-8,88226.9
3.89456e-8,86980.79999999999
4.03712e-8,85756.9
4.1848700000000003e-8,84555.1
4.33805e-8,83374.5
4.4968199999999994e-8,82215.29999999999
4.66141e-8,81076.59999999999
4.8320100000000004e-8,79958.5
5.008880000000001e-8,78860.09999999999
5.1922e-8,77781.4
5.38225e-8,76721.8
5.57923e-8,75681.2
5.78345e-8,74658.9
5.995110000000001e-8,73654.8
6.21455e-8,72668.5
6.442e-8,71699.90000000001
6.67779e-8,70748.5
6.92219e-8,69814.1
7.17556e-8,68896.2
7.45394e-8,67942.2
7.743109999999999e-8,67006.3
8.04351e-8,66088.0
8.35556e-8,65187.0
8.67971e-8,64303.100000000006
9.01644e-8,63435.8
9.36623e-8,62585.0
9.7296e-8,61750.4
1.0107099999999999e-7,60931.49999999999
1.0499199999999999e-7,60128.00000000001
1.0906499999999999e-7,59339.5
1.13296e-7,58565.8
1.1769099999999998e-7,57806.49999999999
1.2225699999999998e-7,57061.5
1.2699999999999999e-7,56330.5
1.31927e-7,55613.299999999996
1.37045e-7,54909.600000000006
1.4236200000000001e-7,54219.1
1.48197e-7,53504.4
1.54273e-7,52803.8
1.60597e-7,52117.2
1.67181e-7,51444.1
1.7403399999999998e-7,50784.5
1.81168e-7,50137.9
1.88595e-7,49504.299999999996
1.9632599999999998e-7,48883.299999999996
2.04374e-7,48274.8
2.12753e-7,47678.200000000004
2.21474e-7,47093.299999999996
2.3055299999999999e-7,46519.8
2.40004e-7,45957.600000000006
2.49843e-7,45406.6
2.60636e-7,44838.3
2.7189499999999996e-7,44281.8
2.8363999999999996e-7,43736.9
2.95893e-7,43203.4
3.08674e-7,42680.9
3.2200799999999995e-7,42169.299999999996
3.3591799999999995e-7,41668.3
3.50429e-7,41177.700000000004
3.65567e-7,40697.299999999996
3.8135799999999997e-7,40226.9
3.97832e-7,39766.4
4.15895e-7,39293.3
4.3478000000000003e-7,38830.200000000004
4.5452e-7,38377.0
4.75159e-7,37933.6
4.967329999999999e-7,37499.7
5.192879999999999e-7,37075.3
5.428659999999999e-7,36660.0
5.67516e-7,36253.700000000004
5.93283e-7,35856.2
6.21535e-7,35448.9
6.51131e-7,35050.8
6.82137e-7,34661.6
7.14619e-7,34281.2
7.48648e-7,33909.3
7.84298e-7,33545.799999999996
8.21645e-7,33190.8
8.625949999999999e-7,32827.9
9.055809999999999e-7,32473.2
9.50713e-7,32126.7
9.98091e-7,31788.2
1.04978e-6,31445.2
1.1181099999999998e-6,31028.4
1.20764e-6,30536.500000000004
1.32281e-6,29976.600000000002
1.46933e-6,29362.8
1.66678e-6,28661.0
1.94449e-6,27856.7
2.30047e-6,27044.899999999998
2.74082e-6,26256.2
3.2883399999999998e-6,25497.899999999998
3.97287e-6,24767.0
4.8678499999999995e-6,24042.3
5.9641499999999995e-6,23362.2
7.35891e-6,22705.199999999997
9.14388e-6,22063.7
1.1361300000000003e-5,21448.7
1.43162e-5,20811.1
1.8166100000000002e-5,20165.4
2.3051200000000004e-5,19512.0
2.9662700000000003e-5,18799.9
3.79032e-5,18075.0
4.8096e-5,17326.1
6.060520000000001e-5,16549.0
7.583310000000001e-5,15744.7
9.29117e-5,14969.1
0.000113045,14178.699999999999
0.000135627,13409.800000000001
0.00016158900000000001,12638.7
0.00019117100000000002,11866.5
0.00022931,10979.300000000001
0.000284094,9764.519999999999
0.00030337200000000005,9285.28
0.000315866,8924.279999999999
0.00032616000000000003,8571.48
0.00033264000000000004,8306.64
0.000339337,7979.25
0.00034365700000000003,7725.87
0.00034749,7462.27
0.00035127000000000004,7153.38
0.000354105,6879.41
0.00035694,6557.839999999999
0.00035883,6310.46
0.00036072000000000003,6031.25
0.00036261,5715.57
0.0003645,5360.8099999999995
0.00036787500000000004,4661.93
0.00036888800000000005,4472.05
0.000369563,4373.17
0.000370069,4325.66
0.00037044800000000006,4312.7300000000005
0.000370744,4321.16
0.000371081,4356.860000000001
0.000371334,4406.85
0.000371587,4481.860000000001
0.00037184100000000003,4587.81
0.00037206,4710.38
0.00037226200000000005,4854.3099999999995
0.00037246500000000005,5033.85
0.0003726,5176.84
0.000372735,5341.42
0.00037287,5530.58
0.000373005,5747.77
0.00037315700000000005,6030.67
0.000373309,6360.99
0.00037345600000000004,6735.33
0.000373596,7144.5
0.00037372200000000005,7571.58
0.00037384900000000005,8059.55
0.000373933,8423.42
0.00037401800000000005,8821.960000000001
0.000374123,9374.7
0.000374222,9954.04
0.000374328,10654.5
0.000374409,11248.7
0.00037449,11902.0
0.00037457800000000003,12684.599999999999
0.000374645,13345.9
0.000374713,14064.8
0.00037478,14847.4
0.000374848,15700.8
0.000374915,16633.100000000002
0.00037498300000000007,17653.3
0.00037505000000000004,18772.2
0.000375118,20002.100000000002
0.00037518500000000005,21357.300000000003
0.00037525300000000003,22854.5
0.00037532,24513.4
0.00037538800000000005,26357.7
0.000375438,27879.0
0.000375489,29534.1
0.00037554,31338.8
0.00037559000000000003,33311.799999999996
0.000375641,35474.4
0.000375692,37851.8
0.00037574200000000004,40473.5
0.000375793,43373.799999999996
0.00037584300000000005,46593.299999999996
0.000375894,50179.7
0.00037594500000000003,54189.299999999996
0.000375978,57129.5
0.000376012,60309.4
0.00037604600000000005,63753.799999999996
0.00037608000000000004,67490.5
0.000376113,71550.1
0.000376147,75966.8
0.000376181,80778.4
0.000376215,86026.29999999999
0.00037624800000000003,91756.3
0.000376282,98018.40000000001
0.000376316,104867.0
0.00037635,112362.99999999999
0.00037638300000000005,120569.0
0.00037641700000000004,129556.0
0.00037645100000000003,139399.0
0.000376485,150176.0
0.000376518,161974.0
0.000376552,174880.0
0.00037658600000000004,188988.0
0.00037662000000000004,204395.00000000003
0.000376653,221200.00000000003
0.000376687,239505.0
0.00037671700000000005,256935.0
0.000376755,281471.0
0.000376794,308353.0
0.000376832,337718.0
0.00037687100000000003,369698.0
0.000376909,404405.00000000006
0.00037695000000000003,443994.0
0.00037699,486793.00000000006
0.000377031,532851.0
0.000377071,582171.0
0.000377112,634710.0
0.00037715200000000006,690370.0
0.00037720600000000005,769157.0
0.00037727400000000003,874183.0
0.00037734100000000006,985017.0
0.00037753000000000005,1.30694e6
0.00037761100000000003,1.43852e6
0.000377665,1.51991e6
0.00037771900000000005,1.59421e6
0.00037777300000000003,1.65979e6
0.00037782200000000004,1.71012e6
0.00037787000000000004,1.75122e6
0.000377924,1.78513e6
0.000377978,1.80591e6
0.000378034,1.81312e6
0.00037808000000000004,1.80818e6
0.000378122,1.79491e6
0.000378181,1.76332e6
0.00037824,1.71732e6
0.000378292,1.66574e6
0.00037835600000000005,1.58906e6
0.000378427,1.49341e6
0.000378502,1.37984e6
0.00037874,1.00034e6
0.000378821,877871.0
0.000378875,801061.9999999999
0.000378929,728840.0
0.000378979,665649.0
0.00037903,607029.0
0.000379081,553044.0
0.00037913100000000005,503658.0
0.00037916500000000005,473231.99999999994
0.00037919900000000004,444746.00000000006
0.000379245,408995.0
0.00037927900000000005,384346.0
0.00037931400000000006,361454.0
0.00037934800000000005,340227.0
0.00037938200000000005,320574.0
0.000379417,302395.0
0.000379451,285598.0
0.000379497,265186.0
0.00037954300000000004,246847.0
0.000379581,233036.00000000003
0.000379627,218068.99999999997
0.000379672,204604.0
0.000379718,192477.0
0.000379763,181539.0
0.00037980900000000005,171657.0
0.000379855,162709.0
0.0003799,154588.0
0.000379931,149586.0
0.00037999100000000004,140459.0
0.000380052,132353.0
0.00038012,124363.0
0.00038018700000000004,117279.0
0.000380255,110959.00000000001
0.00038032200000000005,105291.0
0.00038039000000000004,100180.0
0.000380457,95548.0
0.00038052400000000003,91332.0
0.000380592,87478.70000000001
0.00038068600000000003,82609.99999999999
0.000380781,78266.5
0.00038087500000000003,74368.6
0.00038097,70852.3
0.000381065,67665.3
0.000381206,63410.0
0.00038134800000000005,59683.9
0.000381486,56470.3
0.000381625,53608.799999999996
0.000381763,51046.2
0.00038190100000000003,48739.7
0.00038204,46654.0
0.000382247,43876.799999999996
0.000382455,41453.0
0.00038262400000000003,39700.0
0.000382877,37375.799999999996
0.00038313,35356.8
0.000383383,33588.5
0.000383636,32028.500000000004
0.00038388900000000005,30643.1
0.000384143,29405.600000000002
0.00038448000000000003,27948.8
0.00038481800000000004,26675.9
0.00038515500000000004,25555.4
0.00038547600000000005,24608.9
0.00038595700000000003,23366.899999999998
0.000386437,22299.1
0.00038691800000000004,21372.399999999998
0.000387399,20561.2
0.00038805700000000003,19603.0
0.000388733,18766.5
0.00038940800000000005,18047.5
0.00039008200000000004,17423.3
0.00039089200000000005,16775.3
0.00039183800000000004,16131.2
0.000392783,15580.8
0.000393728,15105.3
0.000395145,14502.4
0.000396563,14001.9
0.00039798000000000004,13579.300000000001
0.00039987000000000003,13108.2
0.00040176000000000003,12717.6
0.00040392000000000005,12344.3
0.00040608000000000007,12029.8
0.00040932000000000007,11640.2
0.0004125600000000001,11322.8
0.00041607000000000005,11037.999999999998
0.00042012,10763.5
0.00042552000000000003,10462.9
0.00043200000000000004,10169.900000000001
0.0004389230000000001,9912.57
0.000447962,9633.85
0.000460224,9322.84
0.000476617,8981.550000000001
0.000497988,8606.69
0.000530381,8117.83
0.000618835,6894.42
0.000652,6390.54
0.0006745000000000001,6006.1
0.0006932500000000001,5645.63
0.00070825,5322.4400000000005
0.0007195000000000001,5054.69
0.0007307500000000001,4758.18
0.000742,4427.04
0.0007495000000000001,4183.349999999999
0.0007570000000000001,3918.11
0.0007645,3628.15
0.000770125,3391.93
0.0007757500000000001,3139.0
0.000780906,2890.46
0.000786531,2599.5699999999997
0.00079075,2367.67
0.0007949690000000001,2124.1
0.0007998910000000001,1826.4499999999998
0.000806922,1384.08
0.0008111409999999999,1119.17
0.0008132500000000001,991.3349999999999
0.000815359,869.4060000000001
0.000816766,793.188
0.00081782,739.644
0.000818875,689.765
0.000819871,646.7620000000001
0.0008206180000000001,617.63
0.000821365,591.53
0.0008221120000000002,568.8340000000001
0.0008228590000000001,550.004
0.0008235620000000001,536.276
0.0008242660000000001,526.89
0.000824734,523.298
0.0008252620000000001,522.051
0.0008257890000000001,524.015
0.0008262580000000001,528.686
0.0008267120000000001,536.05
0.0008271660000000001,546.423
0.0008276640000000001,561.534
0.0008281040000000001,578.365
0.000828543,598.7320000000001
0.0008289820000000001,622.897
0.000829422,651.147
0.0008298610000000001,683.7869999999999
0.0008303010000000001,721.15
0.00083074,763.596
0.00083118,811.52
0.0008316190000000001,865.348
0.0008320000000000001,917.131
0.0008323520000000001,969.449
0.0008327030000000001,1026.38
0.0008330550000000001,1088.2099999999998
0.000833406,1155.24
0.0008337870000000001,1234.1200000000001
0.000834227,1333.82
0.0008346660000000001,1443.5500000000002
0.0008351050000000002,1564.13
0.0008355449999999999,1696.47
0.000835984,1841.57
0.000836397,1990.5600000000002
0.000836811,2152.7799999999997
0.000837224,2329.32
0.000837637,2521.37
0.00083805,2730.24
0.0008384919999999999,2974.18
0.0008389490000000001,3250.18
0.000839406,3552.85
0.0008398630000000002,3884.79
0.0008403200000000001,4248.92
0.0008407660000000001,4637.82
0.0008411870000000001,5040.41
0.0008416090000000001,5479.5
0.0008420310000000001,5958.68
0.0008424530000000001,6481.950000000001
0.0008428750000000001,7053.79
0.0008432969999999999,7679.23
0.0008437189999999999,8363.91
0.000844141,9114.21
0.000844562,9937.300000000001
0.000844984,10841.300000000001
0.000845383,11777.599999999999
0.0008457700000000001,12771.300000000001
0.000846156,13857.8
0.000846543,15047.5
0.0008469300000000001,16352.3
0.0008473050000000001,17740.7
0.0008476559999999999,19164.8
0.0008480079999999999,20721.0
0.000848359,22423.899999999998
0.000848711,24290.2
0.0008490629999999999,26339.3
0.000849414,28593.1
0.0008497660000000001,31077.0
0.0008501170000000001,33820.299999999996
0.0008504690000000001,36856.9
0.0008507030000000001,39063.5
0.000851037,42489.7
0.0008513360000000001,45868.3
0.000851635,49579.8
0.000851934,53665.5
0.0008522320000000001,58172.8
0.000852531,63156.8
0.000852802,68137.1
0.0008530730000000001,73617.2
0.000853343,79662.1
0.000853614,86347.0
0.0008538850000000001,93759.09999999999
0.000854134,101326.0
0.0008543730000000001,109319.00000000001
0.000854613,118139.0
0.000854852,127896.00000000001
0.000855091,138717.0
0.0008553250000000001,150504.0
0.0008555500000000001,163072.0
0.0008557750000000001,177040.0
0.0008559250000000001,187227.0
0.0008560750000000001,198193.0
0.0008562250000000001,210012.0
0.0008563750000000001,222769.0
0.0008565160000000001,235664.0
0.000856713,255406.00000000003
0.000856909,277365.0
0.0008570410000000001,293388.0
0.0008571719999999999,310637.0
0.000857303,329229.0
0.000857434,349290.0
0.000857556,369355.0
0.0008577249999999999,399659.0
0.000857894,433222.00000000006
0.000858062,470448.0
0.000858231,511792.0
0.000858344,541886.0
0.000858503,588340.0
0.000858658,638121.0
0.000858812,692988.0
0.0008589670000000001,753407.0
0.000859122,819832.0000000001
0.000859272,890382.0
0.000859412,962304.9999999999
0.0008595530000000001,1.04003e6
0.000859694,1.12364e6
0.0008598340000000001,1.21311e6
0.0008600270000000001,1.34444e6
0.0008602330000000001,1.49573e6
0.0008605420000000001,1.73689e6
0.0008609080000000001,2.02575e6
0.0008611230000000001,2.18544e6
0.000861285,2.29404e6
0.0008614470000000001,2.38929e6
0.000861609,2.46802e6
0.0008617490000000001,2.52079e6
0.000861878,2.55549e6
0.000862007,2.57598e6
0.000862094,2.58155e6
0.00086223,2.57714e6
0.0008623659999999999,2.55693e6
0.000862502,2.52165e6
0.000862638,2.47247e6
0.000862764,2.41547e6
0.0008629540000000001,2.31284e6
0.000863144,2.19422e6
0.000863397,2.02026e6
0.0008639310000000001,1.63989e6
0.000864156,1.48896e6
0.0008643250000000001,1.38262e6
