E(MeV),xs(mb)
1.0e-11,1.2163e9
1.03223e-11,1.19716e9
1.06549e-11,1.17834e9
1.0998399999999998e-11,1.1598e9
1.13527e-11,1.14157e9
1.1718599999999999e-11,1.12361e9
1.2096199999999998e-11,1.10594e9
1.24861e-11,1.08855e9
1.2888399999999999e-11,1.0714300000000001e9
1.3303799999999998e-11,1.0545800000000001e9
1.37325e-11,1.038e9
1.41751e-11,1.0216700000000001e9
1.4631799999999997e-11,1.0056099999999999e9
1.51034e-11,9.897919999999999e8
1.5590099999999998e-11,9.7423e8
1.6092599999999998e-11,9.58909e8
1.66111e-11,9.43833e8
1.71465e-11,9.289899999999999e8
1.7699e-11,9.14385e8
1.8269399999999998e-11,9.00006e8
1.88581e-11,8.85857e8
1.94659e-11,8.71927e8
2.00931e-11,8.58221e8
2.0740699999999998e-11,8.44726e8
2.1408999999999998e-11,8.31447e8
2.2099099999999997e-11,8.18374e8
2.28111e-11,8.055110000000001e8
2.3546399999999998e-11,7.92846e8
2.4305099999999997e-11,7.80385e8
2.50884e-11,7.68116e8
2.5896799999999997e-11,7.56044e8
2.67315e-11,7.44158e8
2.75928e-11,7.32463e8
2.8482199999999998e-11,7.20949e8
2.93999e-11,7.0962e8
3.0347499999999995e-11,6.98466e8
3.13253e-11,6.8749e8
3.2335e-11,6.76685e8
3.33769e-11,6.66052e8
3.44526e-11,6.55585e8
3.55627e-11,6.45285e8
3.67089e-11,6.35144e8
3.7891799999999997e-11,6.25166e8
3.9113e-11,6.15343e8
4.0373400000000003e-11,6.05677e8
4.1674599999999996e-11,5.96161e8
4.3017399999999996e-11,5.86797e8
4.440389999999999e-11,5.77578e8
4.58347e-11,5.68507e8
4.7311899999999994e-11,5.59577e8
4.883639999999999e-11,5.50789e8
5.0410399999999995e-11,5.42138e8
5.20348e-11,5.33625e8
5.37119e-11,5.2524499999999994e8
5.54426e-11,5.1699900000000006e8
5.7229499999999995e-11,5.0888099999999994e8
5.907359999999999e-11,5.00892e8
6.09775e-11,4.93028e8
6.29424e-11,4.8528900000000006e8
6.497099999999999e-11,4.7767099999999994e8
6.70645e-11,4.7017499999999994e8
6.9226e-11,4.62795e8
7.145659999999999e-11,4.55534e8
7.37596e-11,4.4838500000000006e8
7.61364e-11,4.4135099999999994e8
7.85902e-11,4.34426e8
8.11227e-11,4.2761199999999994e8
8.37372e-11,4.20904e8
8.643549999999999e-11,4.1430300000000006e8
8.922119999999998e-11,4.07805e8
9.209619999999999e-11,4.0141099999999994e8
9.506439999999999e-11,3.95117e8
9.81277e-11,3.88923e8
1.01291e-10,3.82825e8
1.04554e-10,3.76826e8
1.07924e-10,3.70919e8
1.11402e-10,3.65109e8
1.1499200000000001e-10,3.59387e8
1.1869700000000001e-10,3.53758e8
1.22523e-10,3.48216e8
1.26471e-10,3.42764e8
1.30547e-10,3.37396e8
1.34754e-10,3.32114e8
1.3909700000000002e-10,3.26914e8
1.43579e-10,3.21799e8
1.48207e-10,3.16762e8
1.52982e-10,3.11807e8
1.57913e-10,3.06929e8
1.6300100000000001e-10,3.02129e8
1.68254e-10,2.97404e8
1.73676e-10,2.92755e8
1.79274e-10,2.88179e8
1.8505000000000002e-10,2.83676e8
1.91014e-10,2.79243e8
1.97169e-10,2.74882e8
2.03524e-10,2.70588e8
2.1008200000000003e-10,2.66364e8
2.16853e-10,2.6220599999999997e8
2.2384e-10,2.58115e8
2.31055e-10,2.54088e8
2.385e-10,2.5012500000000003e8
2.46187e-10,2.46225e8
2.5412e-10,2.42387e8
2.6231e-10,2.3860899999999997e8
2.70762e-10,2.3489300000000003e8
2.7948900000000003e-10,2.3123399999999997e8
2.88494e-10,2.27635e8
2.9779300000000004e-10,2.24092e8
3.07388e-10,2.20606e8
3.1729500000000004e-10,2.1717499999999997e8
3.27519e-10,2.1379899999999997e8
3.38075e-10,2.1047600000000003e8
3.4896900000000003e-10,2.07207e8
3.6021600000000004e-10,2.0398999999999997e8
3.7182300000000004e-10,2.0082399999999997e8
3.83807e-10,1.97708e8
3.96174e-10,1.94643e8
4.08943e-10,1.91625e8
4.2212e-10,1.88657e8
4.3572499999999996e-10,1.85736e8
4.4976500000000005e-10,1.82862e8
4.6426100000000007e-10,1.80033e8
4.79221e-10,1.7725e8
4.94666e-10,1.74511e8
5.10605e-10,1.71817e8
5.270620000000001e-10,1.69165e8
5.440450000000001e-10,1.66556e8
5.6158e-10,1.63989e8
5.796750000000001e-10,1.61464e8
5.98358e-10,1.58978e8
6.176389999999999e-10,1.56534e8
6.37545e-10,1.54128e8
6.58089e-10,1.51761e8
6.79298e-10,1.49432e8
7.01188e-10,1.47141e8
7.237860000000001e-10,1.44887e8
7.47109e-10,1.42669e8
7.71188e-10,1.40487e8
7.960380000000001e-10,1.38341e8
8.21693e-10,1.3623e8
8.48171e-10,1.34152e8
8.75507e-10,1.3210900000000001e8
9.037190000000002e-10,1.3009900000000001e8
9.32845e-10,1.28121e8
9.62904e-10,1.26176e8
9.93937e-10,1.24262e8
1.0259700000000001e-9,1.2238e8
1.05903e-9,1.20529e8
1.09316e-9,1.1870799999999999e8
1.12839e-9,1.16917e8
1.16475e-9,1.1515599999999999e8
1.2022900000000002e-9,1.13423e8
1.2410300000000002e-9,1.1171899999999999e8
1.28103e-9,1.10043e8
1.3223100000000002e-9,1.08395e8
1.36492e-9,1.06775e8
1.4089000000000002e-9,1.0518099999999999e8
1.4543100000000001e-9,1.03614e8
1.5011699999999999e-9,1.0207299999999999e8
1.5495600000000002e-9,1.0055700000000001e8
1.5994900000000002e-9,9.90675e7
1.6510400000000001e-9,9.760249999999999e7
1.7042400000000001e-9,9.61624e7
1.75917e-9,9.474640000000001e7
1.81585e-9,9.33546e7
1.87438e-9,9.19862e7
1.9347700000000003e-9,9.06413e7
1.99713e-9,8.93191e7
2.06148e-9,8.80197e7
2.1279200000000002e-9,8.67425e7
2.19649e-9,8.54875e7
2.26728e-9,8.42539e7
2.3403400000000002e-9,8.3042e7
2.4157700000000002e-9,8.18509e7
2.49362e-9,8.06809e7
2.5739800000000002e-9,7.95312e7
2.65692e-9,7.84019e7
2.7425500000000002e-9,7.72925e7
2.8309300000000003e-9,7.62029e7
2.92217e-9,7.51326e7
3.02272e-9,7.40123e7
3.12674e-9,7.29135e7
3.23433e-9,7.18359e7
3.34563e-9,7.07794e7
3.4607600000000004e-9,6.97435e7
3.5798400000000003e-9,6.87281e7
3.70303e-9,6.77328e7
3.8304600000000004e-9,6.67575e7
3.96227e-9,6.58019e7
4.09861e-9,6.48656e7
4.23965e-9,6.394860000000001e7
4.38554e-9,6.30506e7
4.53645e-9,6.21713e7
4.692560000000001e-9,6.13106e7
4.85404e-9,6.04682e7
5.02107e-9,5.9644e7
5.19385e-9,5.88377e7
5.3725800000000005e-9,5.80493e7
5.557450000000001e-9,5.72785e7
5.74869e-9,5.65251e7
5.94651e-9,5.578909999999999e7
6.15114e-9,5.50702e7
6.3628e-9,5.43684e7
6.58176e-9,5.368350000000001e7
6.80824e-9,5.30154e7
7.04252e-9,5.2364e7
7.2848600000000004e-9,5.172920000000001e7
7.535540000000001e-9,5.11109e7
7.794850000000001e-9,5.05091e7
8.06308e-9,4.99238e7
8.34054e-9,4.93548e7
8.62755e-9,4.88021e7
8.9433e-9,4.82329e7
9.27066e-9,4.7682e7
9.60995e-9,4.71497e7
9.9617e-9,4.66357e7
1.0326299999999999e-8,4.61404e7
1.07043e-8,4.566360000000001e7
1.1095999999999999e-8,4.52057e7
1.15022e-8,4.47665e7
1.19231e-8,4.43464e7
1.23596e-8,4.39455e7
1.28119e-8,4.35641e7
1.3280799999999999e-8,4.320229999999999e7
1.37669e-8,4.28606e7
1.42708e-8,4.25392e7
1.47931e-8,4.22387e7
1.53346e-8,4.19594e7
1.58958e-8,4.17018e7
1.64776e-8,4.14665e7
1.70807e-8,4.125409999999999e7
1.77059e-8,4.10654e7
1.83539e-8,4.09011e7
1.90257e-8,4.07621e7
1.9722e-8,4.064930000000001e7
2.04439e-8,4.056390000000001e7
2.1192099999999998e-8,4.0507e7
2.19678e-8,4.04798e7
2.2248299999999998e-8,4.04776e7
2.30642e-8,4.04932e7
2.3857900000000002e-8,4.05385e7
2.4678900000000003e-8,4.06151e7
2.5279799999999998e-8,4.06895e7
2.5299999999999998e-8,4.06923e7
2.61706e-8,4.08274e7
2.7071200000000002e-8,4.0999e7
2.7943600000000003e-8,4.119519999999999e7
2.88441e-8,4.14276e7
2.9773700000000003e-8,4.16988e7
3.07331e-8,4.20111e7
3.1656499999999996e-8,4.23424e7
3.26077e-8,4.27147e7
3.3587400000000003e-8,4.31309e7
3.45235e-8,4.35594e7
3.54856e-8,4.40312e7
3.6474700000000004e-8,4.45495e7
3.74912e-8,4.51175e7
3.84547e-8,4.56892e7
3.94429e-8,4.630969999999999e7
4.04565e-8,4.69824e7
4.1408699999999994e-8,4.76483e7
4.2382999999999996e-8,4.83645e7
4.33805e-8,4.91346e7
4.43075e-8,4.98845e7
4.52544e-8,5.06852e7
4.622150000000001e-8,5.15399e7
4.72093e-8,5.24522e7
4.8116199999999996e-8,5.33256e7
4.9040800000000005e-8,5.4252e7
4.99829e-8,5.52342e7
5.0943300000000005e-8,5.6276e7
5.1922e-8,5.73805e7
5.2919700000000004e-8,5.8552e7
5.38225e-8,5.96525e7
5.4740700000000004e-8,6.08119e7
5.56746e-8,6.20331e7
5.66244e-8,6.33193e7
5.7590399999999997e-8,6.46737e7
5.85729e-8,6.60996e7
5.95722e-8,6.76002e7
6.05885e-8,6.91787e7
6.16221e-8,7.08381e7
6.26734e-8,7.25814e7
6.37426e-8,7.44111e7
6.482999999999999e-8,7.63294e7
6.5936e-8,7.83378e7
6.70609e-8,8.043710000000001e7
6.820500000000001e-8,8.26271e7
6.95153e-8,8.5197e7
7.10008e-8,8.81793e7
7.282549999999999e-8,9.19182e7
7.69413e-8,1.0045299999999999e8
7.84198e-8,1.03463e8
7.975760000000001e-8,1.06117e8
8.09468e-8,1.08395e8
8.19803e-8,1.10297e8
8.285180000000001e-8,1.11832e8
8.37322e-8,1.13311e8
8.46224e-8,1.1472199999999999e8
8.53412e-8,1.15794e8
8.60661e-8,1.16808e8
8.67971e-8,1.17758e8
8.753439999999999e-8,1.1863699999999999e8
8.82779e-8,1.19439e8
8.90277e-8,1.20156e8
8.9594e-8,1.20634e8
9.01644e-8,1.21059e8
9.0738e-8,1.21427e8
9.13156e-8,1.21736e8
9.18965e-8,1.21983e8
9.24815e-8,1.2216499999999999e8
9.30698e-8,1.22281e8
9.36623e-8,1.22329e8
9.38604e-8,1.22329e8
9.44315e-8,1.22285e8
9.50057e-8,1.2217499999999999e8
9.56105e-8,1.21987e8
9.621869999999999e-8,1.2172400000000001e8
9.68313e-8,1.21383e8
9.74472e-8,1.20966e8
9.80676e-8,1.2047000000000001e8
9.86915e-8,1.1989700000000001e8
9.93197e-8,1.19245e8
9.995150000000001e-8,1.18516e8
1.00588e-7,1.1771e8
1.01228e-7,1.16829e8
1.01872e-7,1.15872e8
1.0251999999999998e-7,1.14842e8
1.03173e-7,1.13741e8
1.0382899999999998e-7,1.12571e8
1.0448999999999999e-7,1.11334e8
1.0515499999999999e-7,1.10033e8
1.0582400000000001e-7,1.08671e8
1.0672299999999998e-7,1.0676399999999999e8
1.0763e-7,1.04763e8
1.08544e-7,1.02674e8
1.09466e-7,1.0050699999999999e8
1.1062899999999999e-7,9.770200000000001e7
1.1204199999999999e-7,9.42183e7
1.14194e-7,8.88179e7
1.16635e-7,8.26862e7
1.18124e-7,7.89943e7
1.1937899999999997e-7,7.59345e7
1.2039299999999998e-7,7.35068e7
1.2141599999999998e-7,7.11043e7
1.2244699999999998e-7,6.87329e7
1.23227e-7,6.69773e7
1.24011e-7,6.52454e7
1.248e-7,6.35365e7
1.25594e-7,6.18546e7
1.2639299999999999e-7,6.01989e7
1.27198e-7,5.857300000000001e7
1.28007e-7,5.69756e7
1.28822e-7,5.54101e7
1.29642e-7,5.38749e7
1.30466e-7,5.23729e7
1.31297e-7,5.09026e7
1.32132e-7,4.94663e7
1.32973e-7,4.80624e7
1.33819e-7,4.66929e7
1.34386e-7,4.57982e7
1.34956e-7,4.49184e7
1.35528e-7,4.40536e7
1.3610199999999998e-7,4.32035e7
1.3667899999999998e-7,4.23683e7
1.37258e-7,4.15477e7
1.3784e-7,4.07418e7
1.38424e-7,3.99504e7
1.39011e-7,3.91735e7
1.3959999999999998e-7,3.84109e7
1.40191e-7,3.76624e7
1.4078599999999997e-7,3.6928e7
1.41382e-7,3.62075e7
1.41981e-7,3.55007e7
1.4258299999999997e-7,3.48075e7
1.43187e-7,3.41277e7
1.43794e-7,3.34612e7
1.44404e-7,3.28077e7
1.4501599999999998e-7,3.21671e7
1.4563e-7,3.15392e7
1.46247e-7,3.09238e7
1.46867e-7,3.03208e7
1.4749e-7,2.97298e7
1.48115e-7,2.91508e7
1.48742e-7,2.8583599999999996e7
1.49373e-7,2.80278e7
1.50006e-7,2.74835e7
1.50641e-7,2.69502e7
1.5128e-7,2.6427900000000004e7
1.51921e-7,2.59164e7
1.52565e-7,2.54154e7
1.53211e-7,2.49248e7
1.53861e-7,2.44443e7
1.5451299999999998e-7,2.39738e7
1.5516799999999998e-7,2.3513099999999996e7
1.5582499999999998e-7,2.3062e7
1.56486e-7,2.2620300000000004e7
1.57149e-7,2.2187800000000004e7
1.57815e-7,2.17643e7
1.58484e-7,2.13496e7
1.59155e-7,2.09437e7
1.5983e-7,2.05462e7
1.60507e-7,2.0157e7
1.6118699999999997e-7,1.9776e7
1.6187e-7,1.94029e7
1.62557e-7,1.90377e7
1.6324499999999998e-7,1.868e7
1.63937e-7,1.83299e7
1.64632e-7,1.79871e7
1.6532999999999999e-7,1.76514e7
1.6603e-7,1.73228e7
1.66734e-7,1.7001e7
1.67441e-7,1.66859e7
1.6814999999999998e-7,1.63774e7
1.68863e-7,1.6075299999999998e7
1.6957899999999999e-7,1.57795e7
1.70297e-7,1.54898e7
1.71019e-7,1.52061e7
1.71744e-7,1.49284e7
1.7247199999999998e-7,1.46563e7
1.73202e-7,1.43899e7
1.73936e-7,1.4129e7
1.74674e-7,1.38734e7
1.7541399999999999e-7,1.36232e7
1.76157e-7,1.3378000000000002e7
1.7690399999999998e-7,1.31379e7
1.7765399999999998e-7,1.29027e7
1.78406e-7,1.26723e7
1.79163e-7,1.2446600000000002e7
1.79922e-7,1.22256e7
1.80684e-7,1.2009e7
1.8145e-7,1.17968e7
1.82219e-7,1.15889e7
1.8299099999999997e-7,1.13852e7
1.8376699999999998e-7,1.11856e7
1.84546e-7,1.09901e7
1.85328e-7,1.07985e7
1.86113e-7,1.06107e7
1.86902e-7,1.04267e7
1.8769399999999999e-7,1.02463e7
1.88489e-7,1.00696e7
1.89288e-7,9.89635e6
1.9009e-7,9.72656e6
1.90896e-7,9.56014e6
1.9170499999999998e-7,9.39701e6
1.9251799999999998e-7,9.2371e6
1.93333e-7,9.08034e6
1.9415299999999998e-7,8.92665e6
1.9497599999999999e-7,8.77598e6
1.95802e-7,8.62825e6
1.96632e-7,8.48341e6
1.97465e-7,8.341390000000001e6
1.98302e-7,8.202120000000001e6
1.99142e-7,8.06556e6
2.0041e-7,7.86558e6
2.0168499999999997e-7,7.67148e6
2.02969e-7,7.48282e6
2.0426e-7,7.29967e6
2.0556e-7,7.12161e6
2.06868e-7,6.94873e6
2.08185e-7,6.78061e6
2.0950899999999997e-7,6.61733e6
2.1084299999999998e-7,6.45853e6
2.1218400000000002e-7,6.30427e6
2.1353499999999999e-7,6.15421e6
2.14894e-7,6.00841e6
2.1626199999999998e-7,5.86654e6
2.1763699999999998e-7,5.72868e6
2.1902300000000002e-7,5.59451e6
2.2041599999999998e-7,5.4641e6
2.2181899999999998e-7,5.33716e6
2.2323e-7,5.21375e6
2.2465099999999996e-7,5.09361e6
2.2608e-7,4.97679e6
2.2752e-7,4.86303e6
2.28967e-7,4.75239e6
2.30425e-7,4.64464e6
2.3189099999999997e-7,4.53983e6
2.33367e-7,4.43773e6
2.34851e-7,4.3384e6
2.36346e-7,4.24162e6
2.3784999999999998e-7,4.1474399999999995e6
2.39364e-7,4.05567e6
2.4088699999999995e-7,3.96636e6
2.4241999999999997e-7,3.8793e6
2.43962e-7,3.79456e6
2.45515e-7,3.71195e6
2.47077e-7,3.63152e6
2.4865e-7,3.5531e6
2.50232e-7,3.47674e6
2.51825e-7,3.40228e6
2.53427e-7,3.32975e6
2.5504e-7,3.25901e6
2.56663e-7,3.19011e6
2.58297e-7,3.12289e6
2.5994e-7,3.0574e6
2.61594e-7,2.99351e6
2.6325899999999996e-7,2.93125e6
2.64934e-7,2.8705e6
2.6662e-7,2.81129e6
2.68317e-7,2.75351e6
2.70024e-7,2.69719e6
2.7174299999999995e-7,2.64222e6
2.73472e-7,2.58863e6
2.75213e-7,2.53631e6
2.76963e-7,2.4853e6
2.78727e-7,2.4355e6
2.805e-7,2.38693e6
2.82285e-7,2.33951e6
2.8408099999999996e-7,2.29326e6
2.85889e-7,2.24809e6
2.8770799999999997e-7,2.20404e6
2.8954e-7,2.161e6
2.9138199999999996e-7,2.11903e6
2.93237e-7,2.07802e6
2.95102e-7,2.0380099999999998e6
2.96981e-7,1.99892e6
2.9887e-7,1.96079e6
3.0077199999999996e-7,1.92352e6
3.02686e-7,1.88716e6
3.0461299999999995e-7,1.85162e6
3.0655e-7,1.81694e6
3.08502e-7,1.78305e6
3.10464e-7,1.74996e6
3.12441e-7,1.71763e6
3.14428e-7,1.68607e6
3.1643e-7,1.65522e6
3.1844299999999996e-7,1.6251e6
3.2046999999999996e-7,1.59566e6
3.2250899999999997e-7,1.56691e6
3.24562e-7,1.53881e6
3.26627e-7,1.51137e6
3.28706e-7,1.48454e6
3.30797e-7,1.45835e6
3.32903e-7,1.43274e6
3.35021e-7,1.40773e6
3.37153e-7,1.38327e6
3.3929799999999997e-7,1.35939e6
3.41458e-7,1.33604e6
3.4363e-7,1.31323e6
3.45818e-7,1.29093e6
3.4801799999999996e-7,1.26915e6
3.50233e-7,1.24785e6
3.52461e-7,1.22705e6
3.54705e-7,1.2067e6
3.56962e-7,1.18684e6
3.5923399999999997e-7,1.16741e6
3.61519e-7,1.14843e6
3.6382099999999996e-7,1.12988e6
3.66135e-7,1.11176e6
3.68466e-7,1.09403e6
3.7080999999999997e-7,1.07673e6
3.7317e-7,1.05981e6
3.75544e-7,1.04329e6
3.77935e-7,1.0271300000000001e6
3.8033899999999995e-7,1.01136e6
3.82761e-7,995932.0
3.85195e-7,980873.0000000001
3.8846699999999995e-7,961326.0
3.91767e-7,942378.0000000001
3.95095e-7,924015.0
3.9844999999999997e-7,906220.0000000001
4.0183499999999997e-7,888979.0
4.05248e-7,872278.0
4.0869e-7,856105.0
4.12162e-7,840445.0000000001
4.15662e-7,825287.9999999999
4.19193e-7,810621.0000000001
4.22754e-7,796434.0
4.2634499999999997e-7,782715.0
4.2996600000000003e-7,769456.0
4.3361799999999993e-7,756645.0
4.3730099999999995e-7,744276.0
4.41016e-7,732338.0
4.4476199999999997e-7,720824.0
4.4853899999999994e-7,709728.0
4.5234899999999997e-7,699041.0
4.56191e-7,688758.0
4.60066e-7,678874.0
4.6397399999999994e-7,669382.0
4.67915e-7,660279.0
4.718899999999999e-7,651560.0
4.75898e-7,643222.0
4.7994e-7,635262.0
4.84017e-7,627677.0
4.88128e-7,620467.0
4.92274e-7,613630.0
4.96455e-7,607167.0
5.006719999999999e-7,601077.0
5.04925e-7,595362.0
5.09214e-7,590024.0
5.13539e-7,585066.0
5.17901e-7,580491.0
5.223e-7,576305.0
5.26736e-7,572514.0
5.3121e-7,569124.0
5.35723e-7,566144.0
5.402729999999999e-7,563584.0
5.43712e-7,561945.0
5.47171e-7,560554.0
5.50654e-7,559416.0
5.54157e-7,558538.0
5.57685e-7,557927.0
5.61233e-7,557590.0
5.63611e-7,557521.0
5.67957e-7,557728.0
5.7157e-7,558229.0
5.752089999999999e-7,559043.0
5.78868e-7,560179.0
5.825529999999999e-7,561652.0
5.862589999999999e-7,563475.0
5.89991e-7,565664.0
5.93744e-7,568234.0
5.97524e-7,571207.0
6.01325e-7,574598.0
6.051529999999999e-7,578434.0
6.090029999999999e-7,582734.0
6.1288e-7,587530.0
6.16779e-7,592843.0
6.20705e-7,598713.0
6.23336e-7,602950.0
6.259769999999999e-7,607458.0
6.2863e-7,612250.0
6.31294e-7,617338.0
6.339699999999999e-7,622736.0
6.366559999999999e-7,628459.0
6.39355e-7,634520.0
6.420639999999999e-7,640938.0
6.44785e-7,647729.0
6.47518e-7,654912.0
6.50262e-7,662507.0
6.530179999999999e-7,670537.0
6.557849999999999e-7,679024.0
6.58565e-7,687994.0
6.61356e-7,697474.0
6.64158e-7,707492.0
6.66973e-7,718080.0
6.698e-7,729273.0
6.71927e-7,738084.0
6.74061e-7,747269.0
6.76203e-7,756858.0
6.78352e-7,766856.0
6.805059999999999e-7,777284.0
6.82667e-7,788162.0
6.84837e-7,799528.0
6.870129999999999e-7,811389.9999999999
6.89195e-7,823774.0
6.913829999999999e-7,836706.0
6.93581e-7,850234.0
6.95785e-7,864370.0000000001
6.979949999999999e-7,879148.0
7.00211e-7,894602.0000000001
7.02437e-7,910793.0
7.04668e-7,927741.0
7.069069999999999e-7,945487.0
7.09151e-7,964079.0000000001
7.114049999999999e-7,983596.0
7.12911e-7,997129.0
7.144199999999999e-7,1.01111e6
7.159319999999999e-7,1.0255399999999999e6
7.17448e-7,1.0404599999999999e6
7.189659999999999e-7,1.05588e6
7.20488e-7,1.07183e6
7.22013e-7,1.08831e6
7.23542e-7,1.10537e6
7.250729999999999e-7,1.12302e6
7.26608e-7,1.14129e6
7.28146e-7,1.16021e6
7.296869999999999e-7,1.1798e6
7.312319999999999e-7,1.20011e6
7.3278e-7,1.22116e6
7.343309999999999e-7,1.24298e6
7.35885e-7,1.26562e6
7.374429999999999e-7,1.28912e6
7.390039999999999e-7,1.31351e6
7.40568e-7,1.33884e6
7.42136e-7,1.36516e6
7.43707e-7,1.39252e6
7.45281e-7,1.42098e6
7.468589999999999e-7,1.45058e6
7.480439999999999e-7,1.47358e6
7.492299999999999e-7,1.49725e6
7.504209999999999e-7,1.52171e6
7.516119999999999e-7,1.54691e6
7.528039999999999e-7,1.5729e6
7.54e-7,1.59976e6
7.55196e-7,1.62743e6
7.563949999999999e-7,1.65605e6
7.57596e-7,1.6856e6
7.587959999999999e-7,1.71608e6
7.60002e-7,1.74767e6
7.612079999999999e-7,1.78028e6
7.624159999999999e-7,1.81401e6
7.636269999999999e-7,1.84894e6
7.64838e-7,1.88504e6
7.66052e-7,1.92245e6
7.672679999999999e-7,1.9612e6
7.684849999999999e-7,2.00128e6
7.69706e-7,2.0429300000000002e6
7.70927e-7,2.0860599999999998e6
7.7215e-7,2.13077e6
7.73377e-7,2.17723e6
7.746029999999999e-7,2.22538e6
7.75833e-7,2.27545e6
7.770649999999999e-7,2.32745e6
7.782969999999999e-7,2.38141e6
7.79533e-7,2.43766e6
7.80358e-7,2.47635e6
7.811829999999999e-7,2.51604e6
7.82009e-7,2.55684e6
7.828369999999999e-7,2.5988e6
7.836649999999999e-7,2.64185e6
7.84493e-7,2.68604e6
7.853229999999999e-7,2.73151e6
7.86155e-7,2.77829e6
7.86986e-7,2.82633e6
7.87818e-7,2.87568e6
7.88651e-7,2.92648e6
7.89487e-7,2.97879e6
7.90322e-7,3.03254e6
7.91157e-7,3.0878e6
7.91994e-7,3.14472e6
7.92832e-7,3.20337e6
7.93671e-7,3.26368e6
7.945099999999999e-7,3.3257e6
7.953499999999999e-7,3.38964e6
7.96192e-7,3.45556e6
7.97035e-7,3.52338e6
7.978769999999999e-7,3.59317e6
7.98721e-7,3.66514e6
7.99567e-7,3.73938e6
8.00412e-7,3.8158e6
8.01258e-7,3.89446e6
8.02106e-7,3.97562e6
8.02955e-7,4.0593500000000005e6
8.03805e-7,4.1455599999999995e6
8.04654e-7,4.23434e6
8.055049999999999e-7,4.32593e6
8.063579999999999e-7,4.42045e6
8.07211e-7,4.51777e6
8.08064e-7,4.61797e6
8.08919e-7,4.72136e6
8.097749999999999e-7,4.82802e6
8.10632e-7,4.93783e6
8.11489e-7,5.05086e6
8.123469999999999e-7,5.16742e6
8.13207e-7,5.28763e6
8.140679999999999e-7,5.41131e6
8.149279999999998e-7,5.53852e6
8.157899999999999e-7,5.66962e6
8.16654e-7,5.8047e6
8.175179999999999e-7,5.94354e6
8.183809999999999e-7,6.0862e6
8.19247e-7,6.23304e6
8.20115e-7,6.38413e6
8.20982e-7,6.53921e6
8.2185e-7,6.69829e6
8.22719e-7,6.86176e6
8.235900000000001e-7,7.02965e6
8.24461e-7,7.20163e6
8.253329999999999e-7,7.37767e6
8.26206e-7,7.55816e6
8.270810000000001e-7,7.74307e6
8.27956e-7,7.93199e6
8.288299999999999e-7,8.124840000000001e6
8.29707e-7,8.32198e6
8.305859999999999e-7,8.52333e6
8.314640000000001e-7,8.72836e6
8.327819999999999e-7,9.04252e6
8.34106e-7,9.36553e6
8.35429e-7,9.69543e6
8.367549999999999e-7,1.0032e7
8.380839999999998e-7,1.03748e7
8.398559999999999e-7,1.08385e7
8.43415e-7,1.17825e7
