E(MeV),xs(mb)
1.0e-11,32321.399999999998
1.03223e-11,31825.600000000002
1.06549e-11,31338.0
1.0998399999999998e-11,30858.0
1.13527e-11,30386.000000000004
1.1718599999999999e-11,29921.5
1.2096199999999998e-11,29464.600000000002
1.24861e-11,29015.0
1.2888399999999999e-11,28572.8
1.3303799999999998e-11,28137.699999999997
1.37325e-11,27709.800000000003
1.41751e-11,27288.7
1.4631799999999997e-11,26874.600000000002
1.51034e-11,26467.100000000002
1.5590099999999998e-11,26066.4
1.6092599999999998e-11,25672.100000000002
1.66111e-11,25284.399999999998
1.71465e-11,24902.899999999998
1.7699e-11,24527.800000000003
1.8269399999999998e-11,24158.8
1.88581e-11,23795.899999999998
1.94659e-11,23438.9
2.00931e-11,23087.9
2.0740699999999998e-11,22742.5
2.1408999999999998e-11,22403.0
2.2099099999999997e-11,22069.0
2.28111e-11,21740.6
2.3546399999999998e-11,21417.600000000002
2.4305099999999997e-11,21100.1
2.50884e-11,20787.8
2.5896799999999997e-11,20480.7
2.67315e-11,20178.8
2.75928e-11,19881.899999999998
2.8482199999999998e-11,19590.0
2.93999e-11,19303.0
3.0347499999999995e-11,19020.8
3.13253e-11,18743.5
3.2335e-11,18470.7
3.33769e-11,18202.7
3.44526e-11,17939.2
3.55627e-11,17680.2
3.67089e-11,17425.5
3.7891799999999997e-11,17175.3
3.9113e-11,16929.3
4.0373400000000003e-11,16687.6
4.1674599999999996e-11,16450.0
4.3108599999999993e-11,16201.099999999999
4.4592099999999995e-11,15956.9
4.61265e-11,15717.099999999999
4.771379999999999e-11,15481.8
4.93557e-11,15250.900000000001
5.1054099999999996e-11,15024.4
5.281089999999999e-11,14802.0
5.46282e-11,14583.900000000001
5.6507999999999996e-11,14369.9
5.84525e-11,14159.900000000001
6.046389999999999e-11,13953.9
6.25445e-11,13751.9
6.46968e-11,13553.699999999999
6.692309999999999e-11,13359.4
6.9226e-11,13168.800000000001
7.160809999999999e-11,12981.9
7.407219999999999e-11,12798.6
7.66212e-11,12619.0
7.925779999999999e-11,12442.800000000001
8.198510000000001e-11,12270.099999999999
8.480629999999999e-11,12100.900000000001
8.77246e-11,11935.0
9.07433e-11,11772.400000000001
9.386589999999999e-11,11613.199999999999
9.70959e-11,11457.1
1.0043800000000001e-10,11304.099999999999
1.03894e-10,11154.3
1.07469e-10,11007.6
1.11167e-10,10863.9
1.1499200000000001e-10,10723.199999999999
1.1919999999999999e-10,10576.9
1.2356400000000002e-10,10433.8
1.28086e-10,10293.9
1.32774e-10,10157.199999999999
1.3763300000000002e-10,10023.599999999999
1.42672e-10,9892.960000000001
1.4789300000000002e-10,9765.37
1.53306e-10,9640.68
1.58917e-10,9518.92
1.6473400000000002e-10,9399.960000000001
1.7076300000000001e-10,9283.83
1.77014e-10,9170.400000000001
1.83491e-10,9059.699999999999
1.9020800000000002e-10,8951.61
1.97169e-10,8846.16
2.04818e-10,8737.27
2.12764e-10,8631.18
2.2101799999999999e-10,8527.85
2.2959299999999998e-10,8427.23
2.385e-10,8329.24
2.47752e-10,8233.86
2.57364e-10,8141.0199999999995
2.67349e-10,8050.67
2.7830900000000004e-10,7957.94
2.8971700000000003e-10,7867.88
3.0159500000000003e-10,7780.41
3.13957e-10,7695.5
3.26829e-10,7613.0599999999995
3.4022500000000003e-10,7533.0599999999995
3.54174e-10,7455.41
3.69473e-10,7376.179999999999
3.85434e-10,7299.45
4.0208300000000005e-10,7225.139999999999
4.19452e-10,7153.21
4.37571e-10,7083.580000000001
4.57438e-10,7012.88
4.7821e-10,6944.57
4.999220000000001e-10,6878.599999999999
5.22623e-10,6814.879999999999
5.47509e-10,6750.47
5.73581e-10,6688.38
6.00894e-10,6628.54
6.308379999999999e-10,6568.3
6.62279e-10,6510.349999999999
6.95282e-10,6454.6
7.31477e-10,6398.6900000000005
7.69556e-10,6344.99
8.09618e-10,6293.4400000000005
8.53571e-10,6241.91
8.999050000000001e-10,6192.51
9.50765e-10,6143.3
1.0045e-9,6096.19
1.06352e-9,6049.400000000001
1.126e-9,6004.6900000000005
1.19468e-9,5960.4
1.26755e-9,5918.12
1.34771e-9,5876.36
1.43598e-9,5835.21
1.53002e-9,5796.04
1.63367e-9,5757.54
1.74804e-9,5719.79
1.87438e-9,5682.85
2.0098300000000003e-9,5647.820000000001
2.15965e-9,5613.62
2.32555e-9,5580.29
2.50949e-9,5547.88
2.7137e-9,5516.429999999999
2.9407500000000002e-9,5485.97
3.1935600000000003e-9,5456.52
3.4754200000000004e-9,5428.09
3.7981900000000005e-9,5400.0599999999995
4.159720000000001e-9,5373.160000000001
4.57499e-9,5346.8099999999995
5.0423500000000005e-9,5321.64
5.5810000000000005e-9,5297.150000000001
6.19027e-9,5273.86
6.89517e-9,5251.33
7.712860000000001e-9,5229.599999999999
8.664110000000001e-9,5208.7300000000005
9.79461e-9,5188.41
1.11195e-8,5169.06
1.2704e-8,5150.400000000001
1.4606600000000001e-8,5132.5
1.69011e-8,5115.43
1.96804e-8,5099.22
2.31114e-8,5083.700000000001
2.52522e-8,5075.79
2.5299999999999998e-8,5075.63
3.00901e-8,5061.35
3.61675e-8,5047.75
4.39344e-8,5034.91
5.40506e-8,5022.77
6.73451e-8,5011.389999999999
8.53412e-8,5000.639999999999
1.09991e-7,4990.610000000001
1.4448399999999999e-7,4981.290000000001
1.94261e-7,4972.63
2.68467e-7,4964.59
3.82974e-7,4957.150000000001
5.67516e-7,4950.2699999999995
8.81028e-7,4943.8
1.70222e-6,4935.61
1.65845e-5,4896.650000000001
3.5837600000000004e-5,4873.79
4.42675e-5,4888.219999999999
4.848900000000001e-5,4922.030000000001
5.0924600000000004e-5,4966.69
5.274110000000001e-5,5028.5
5.38598e-5,5090.42
5.46197e-5,5150.31
5.539030000000001e-5,5233.97
5.597640000000001e-5,5321.049999999999
5.6568e-5,5439.84
5.6964200000000006e-5,5544.39
5.73661e-5,5679.52
5.766740000000001e-5,5806.94
5.7971600000000006e-5,5966.13
5.8277300000000005e-5,6167.61
5.8481e-5,6332.320000000001
5.86558e-5,6498.4400000000005
5.88744e-5,6747.6900000000005
5.902020000000001e-5,6945.8
5.916590000000001e-5,7175.79
5.932000000000001e-5,7461.47
5.9435500000000004e-5,7710.969999999999
5.9551000000000006e-5,7997.29
5.96665e-5,8328.060000000001
5.9782000000000005e-5,8713.0
5.9890600000000006e-5,9135.38
5.9999200000000007e-5,9630.11
6.00716e-5,10008.6
6.0144000000000006e-5,10433.300000000001
6.02164e-5,10912.4
6.0288800000000005e-5,11455.4
6.036120000000001e-5,12074.7
6.043280000000001e-5,12777.0
6.05044e-5,13586.9
6.0552200000000006e-5,14197.800000000001
6.05999e-5,14875.199999999999
6.0647700000000006e-5,15629.3
6.06954e-5,16472.3
6.0743200000000005e-5,17419.0
6.0789400000000004e-5,18451.0
6.083560000000001e-5,19617.2
6.088180000000001e-5,20942.4
6.0912600000000004e-5,21929.2
6.09434e-5,23011.300000000003
6.09742e-5,24201.800000000003
6.100500000000001e-5,25515.9
6.10358e-5,26971.9
6.10666e-5,28591.8
6.10974e-5,30402.0
6.11282e-5,32434.699999999997
6.11513e-5,34128.7
6.117440000000001e-5,35990.2
6.11975e-5,38043.0
6.12206e-5,40315.3
6.1246e-5,43109.200000000004
6.126610000000001e-5,45561.8
6.12861e-5,48270.600000000006
6.13061e-5,51273.200000000004
6.13261e-5,54614.1
6.13462e-5,58345.6
6.136120000000001e-5,61437.1
6.13762e-5,64812.5
6.139120000000001e-5,68505.3
6.14082e-5,73121.7
6.14263e-5,78575.2
6.14443e-5,84691.2
6.14563e-5,89181.9
6.14683e-5,94038.1
6.148030000000001e-5,99291.7
6.149230000000001e-5,104977.00000000001
6.150590000000001e-5,111954.0
6.15194e-5,119578.99999999999
6.153300000000001e-5,127911.0
6.15466e-5,137005.0
6.15589e-5,145984.0
6.15712e-5,155687.0
6.15835e-5,166156.0
6.159580000000001e-5,177433.0
6.160820000000001e-5,189556.0
6.16205e-5,202559.99999999997
6.163280000000001e-5,216475.00000000003
6.16451e-5,231323.0
6.166360000000001e-5,255377.0
6.16821e-5,281576.0
6.170060000000001e-5,309873.0
6.17191e-5,340157.0
6.17375e-5,372239.0
6.176220000000001e-5,417333.99999999994
6.18423e-5,570269.0
6.18669e-5,614180.0
6.188540000000001e-5,644404.0
6.190330000000001e-5,670696.0
6.19208e-5,693163.0
6.19384e-5,711782.0
6.195690000000001e-5,726760.0
6.19754e-5,736616.0
6.199330000000001e-5,741043.0
6.199950000000001e-5,741364.0
6.20134e-5,739833.0
6.20308e-5,733579.0
6.204930000000001e-5,721797.0
6.20665e-5,706300.0
6.208380000000001e-5,686814.0
6.21023e-5,662000.0
6.212080000000001e-5,633707.0
6.214540000000001e-5,591720.0
6.217e-5,546358.0
6.22378e-5,416899.0
6.22625e-5,372007.0
6.22809e-5,340077.0
6.229940000000001e-5,309938.0
6.23179e-5,281775.0
6.233640000000001e-5,255697.00000000003
6.235490000000002e-5,231748.00000000003
6.236720000000001e-5,216960.0
6.23795e-5,203099.0
6.239180000000001e-5,190139.0
6.240420000000001e-5,178054.0
6.24165e-5,166808.0
6.242880000000001e-5,156364.0
6.24411e-5,146680.0
6.24535e-5,137713.0
6.246580000000001e-5,129421.99999999999
6.247810000000001e-5,121761.00000000001
6.249200000000001e-5,113843.0
6.250580000000001e-5,106609.0
6.251970000000001e-5,100001.0
6.25335e-5,93966.0
6.254740000000001e-5,88451.1
6.25606e-5,83623.4
6.25779e-5,77919.3
6.25952e-5,72803.1
6.26124e-5,68205.0
6.262970000000001e-5,64062.9
6.26469e-5,60322.3
6.266420000000001e-5,56935.200000000004
6.26814e-5,53859.8
6.270240000000001e-5,50492.100000000006
6.27208e-5,47812.799999999996
6.27393e-5,45373.1
6.2764e-5,42444.49999999999
6.278860000000001e-5,39835.799999999996
6.28133e-5,37500.7
6.28379e-5,35401.0
6.28625e-5,33505.0
6.28872e-5,31786.4
6.291800000000001e-5,29854.1
6.294880000000001e-5,28128.600000000002
6.297960000000001e-5,26580.499999999996
6.301040000000001e-5,25185.8
6.304120000000001e-5,23924.4
6.307200000000001e-5,22779.3
6.310280000000001e-5,21736.399999999998
6.313360000000001e-5,20783.800000000003
6.317060000000001e-5,19745.2
6.320760000000001e-5,18806.7
6.32445e-5,17955.5
6.32815e-5,17181.1
6.33369e-5,16143.7
6.33924e-5,15233.300000000001
6.34294e-5,14686.8
6.34894e-5,13887.300000000001
6.35495e-5,13182.1
6.360960000000001e-5,12556.9
6.36696e-5,11999.800000000001
6.372970000000001e-5,11501.4
6.378980000000001e-5,11053.599999999999
6.387990000000001e-5,10462.400000000001
6.39484e-5,10067.6
6.402540000000001e-5,9671.68
6.41024e-5,9319.16
6.4218e-5,8858.59
6.43335e-5,8465.59
6.4449e-5,8127.4800000000005
6.456450000000001e-5,7834.469999999999
6.468000000000001e-5,7578.83
6.48341e-5,7285.700000000001
6.49881e-5,7036.97
6.51995e-5,6752.58
6.53719e-5,6559.57
6.56016e-5,6343.93
6.58314e-5,6165.66
6.606110000000001e-5,6016.7
6.64107e-5,5833.05
6.67602e-5,5688.18
6.72294e-5,5537.16
6.770200000000001e-5,5420.88
6.841750000000001e-5,5290.759999999999
6.889680000000001e-5,5225.16
6.98688e-5,5126.04
7.08545e-5,5056.24
7.236100000000001e-5,4984.41
7.44172e-5,4923.63
7.761150000000001e-5,4869.7
8.3243e-5,4821.51
9.50906e-5,4775.59
0.000129359,4712.23
0.000213637,4612.69
0.000333412,4513.28
0.000492591,4421.9
0.000566494,4392.0
0.000573709,4401.469999999999
0.000575513,4421.64
0.000576385,4453.02
0.0005768360000000001,4491.91
0.000577118,4542.81
0.000577259,4587.73
0.000577401,4658.7
0.000577494,4728.32
0.0005775870000000001,4824.7
0.0005776570000000001,4920.3
0.000577727,5041.21
0.000577804,5209.259999999999
0.0005778640000000001,5371.679999999999
0.000577924,5564.87
0.000577984,5792.04
0.000578044,6055.83
0.0005781040000000001,6357.9800000000005
0.000578164,6698.959999999999
0.000578224,7077.69
0.0005783,7599.5
0.00057839,8282.310000000001
0.000578591,9876.53
0.000578663,10402.4
0.000578735,10865.800000000001
0.000578808,11243.2
0.0005788560000000001,11437.1
0.000578904,11579.0
0.0005789570000000001,11670.9
0.000579,11694.1
0.000579057,11653.4
0.0005791030000000001,11559.3
0.000579154,11399.699999999999
0.000579219,11112.800000000001
0.000579289,10715.8
0.000579361,10228.6
0.000579463,9449.400000000001
0.00057965,7973.03
0.0005797220000000001,7445.48
0.0005797760000000001,7076.37
0.000579836,6698.23
0.000579896,6357.76
0.000579956,6056.04
0.000580016,5792.570000000001
0.0005800760000000001,5565.62
0.000580136,5372.57
0.000580196,5210.200000000001
0.0005802720000000001,5043.57
0.0005803410000000001,4924.0
0.0005804100000000001,4829.0199999999995
0.000580502,4732.74
0.000580593,4662.740000000001
0.000580736,4589.37
0.0005808790000000001,4543.13
0.000581093,4500.87
0.0005814650000000001,4461.610000000001
0.000582127,4429.05
0.00058369,4402.09
0.000589101,4384.58
0.00074304,4328.53
0.0009289300000000001,4283.8099999999995
0.0009409350000000001,4291.610000000001
0.0009439970000000001,4307.7699999999995
0.0009455290000000001,4332.650000000001
0.0009464470000000001,4368.070000000001
0.000946999,4411.1900000000005
0.000947336,4458.7300000000005
0.000947565,4513.099999999999
0.0009477180000000001,4569.15
0.0009478680000000001,4650.55
0.000947977,4735.91
0.000948086,4853.13
0.0009481590000000001,4954.81
0.000948231,5080.3099999999995
0.0009483040000000001,5234.62
0.000948377,5423.3
0.000948447,5643.18
0.0009485170000000001,5906.22
0.0009485870000000001,6218.17
0.0009486570000000001,6584.5
0.0009487040000000001,6861.42
0.0009487500000000002,7165.969999999999
0.000948812,7608.900000000001
0.000948873,8102.449999999999
0.0009489340000000001,8646.91
0.0009489950000000001,9241.210000000001
0.000949057,9882.73
0.0009491490000000002,10923.5
0.000949265,12341.599999999999
0.000949466,14868.699999999999
0.000949559,15955.1
0.0009496320000000002,16732.5
0.000949706,17408.9
0.000949775,17929.0
0.000949833,18276.600000000002
0.000949892,18525.3
0.000949958,18679.399999999998
0.0009499990000000001,18706.100000000002
0.0009500500000000001,18665.4
0.0009501080000000001,18521.7
0.000950171,18245.899999999998
0.0009502280000000001,17905.4
0.0009502940000000001,17400.3
0.000950367,16722.5
0.000950441,15944.199999999999
0.000950527,14942.800000000001
0.00095079,11650.0
0.000950882,10558.4
0.0009509430000000001,9874.91
0.000951005,9234.310000000001
0.000951066,8640.890000000001
0.000951127,8097.26
0.0009511820000000001,7651.45
0.0009512370000000001,7246.679999999999
0.000951292,6881.99
0.0009513470000000001,6555.84
0.0009514030000000001,6266.18
0.000951451,6040.78
0.000951511,5795.27
0.0009515700000000001,5583.580000000001
0.00095163,5402.18
0.00095169,5247.57
0.0009517490000000001,5116.42
0.000951839,4956.9
0.000951937,4823.71
0.000952052,4709.150000000001
0.0009521670000000001,4626.96
0.0009522819999999999,4567.34
0.0009524350000000001,4511.2
0.0009526640000000001,4456.7300000000005
0.000952971,4412.49
0.000953384,4376.35
0.0009541650000000001,4339.22
0.0009553900000000001,4312.29
0.0009578400000000001,4292.08
0.000967272,4276.66
0.0012439100000000002,4225.64
0.00173665,4172.900000000001
0.00199176,4161.26
0.00213753,4173.29
0.00220366,4201.4
0.0022404,4240.17
0.0022624399999999997,4284.0199999999995
0.00228007,4342.74
0.0022933,4412.8
0.00230138,4474.17
0.00230873,4549.32
0.00231608,4652.12
0.00232159,4756.17
0.0023271000000000003,4894.58
0.00233077,5013.91
0.00233445,5163.389999999999
0.0023372,5301.75
0.0023399600000000003,5469.5
0.00234271,5675.62
0.00234455,5840.93
0.00234639,6034.169999999999
0.00234822,6261.96
0.00235006,6533.089999999999
0.00235144,6771.77
0.00235281,7047.76
0.00235419,7369.27
0.0023555700000000004,7746.86
0.00235686,8162.050000000001
0.00235796,8577.460000000001
0.00235906,9060.13
0.00235979,9426.5
0.00236053,9835.23
0.00236126,10293.6
0.002362,10809.9
0.0023626000000000003,11286.199999999999
0.00236332,11917.1
0.00236404,12634.7
0.00236475,13456.1
0.00236523,14072.0
0.00236571,14751.2
0.0023661900000000002,15502.7
0.00236674,16473.5
0.00236729,17574.3
0.0023676599999999997,18392.0
0.00236802,19286.8
0.00236839,20268.600000000002
0.00236876,21349.0
0.00236913,22541.8
0.0023694600000000003,23724.699999999997
0.00236979,25025.5
0.00237012,26460.4
0.00237045,28048.5
0.00237078,29812.4
0.00237111,31778.8
0.0023714400000000003,33980.2
0.00237169,35808.6
0.00237189,37440.9
0.00237213,39551.9
0.0023723800000000003,41870.5
0.00237262,44424.799999999996
0.00237286,47248.0
0.0023731,50379.3
0.0023733499999999998,53865.0
0.00237359,57760.5
0.0023738,61436.4
0.00237396,64746.0
0.0023741300000000003,68350.3
0.0023742999999999998,72284.8
0.00237447,76590.6
0.00237464,81314.7
0.00237481,86511.6
0.00237498,92244.1
0.00237513,97863.90000000001
0.00237526,103243.0
0.00237539,109085.00000000001
0.00237553,115440.00000000001
0.00237566,122364.0
0.00237579,129919.0
0.0023759199999999997,138174.0
0.00237605,147202.0
0.0023761800000000003,156514.0
0.0023763,166042.0
0.00237641,176377.0
0.00237653,187588.0
0.00237665,199746.0
0.0023767700000000003,212921.0
0.00237688,227183.0
0.0023769999999999998,242601.00000000003
0.0023771499999999997,263592.0
0.00237728,284196.0
0.00237741,306474.0
0.00237755,330458.0
0.0023776799999999996,356130.0
0.00237785,392896.0
0.0023780299999999997,432304.0
0.0023783,495310.99999999994
0.0023787400000000003,604128.0
0.0023789099999999997,645830.0
0.0023790900000000004,684543.0
0.00237925,716905.0
0.00237941,742691.0
0.00237956,763391.0
0.00237972,778335.0
0.0023798499999999998,786027.0
0.0023799999999999997,789272.0
0.00238015,785894.0
0.00238027,779345.0
0.00238039,768527.0
0.00238051,754049.0
0.00238063,736205.0
0.00238081,703913.0
0.0023809900000000004,666213.0
0.00238118,624593.0
0.00238153,538211.0
0.00238179,473289.0
0.00238197,431752.0
0.0023821500000000004,392405.0
0.00238232,355703.0
0.00238245,330076.0
0.00238259,306142.0
0.00238274,280361.0
0.0023828900000000004,256849.99999999997
0.00238305,235513.0
0.0023832000000000002,216222.0
0.00238336,198830.0
0.00238347,187483.0
0.00238359,176291.0
0.0023837000000000003,165973.0
0.00238382,156461.0
0.00238394,147689.0
0.00238406,139596.0
0.00238417,132123.0
0.0023842900000000003,125218.0
0.00238442,118065.0
0.00238457,110809.0
0.0023847200000000003,104203.0
0.0023848600000000004,98177.0
0.00238501,92669.3
0.00238516,87624.4
0.0023853100000000003,82993.90000000001
0.0023854500000000003,78734.90000000001
0.0023856199999999998,74189.4
0.00238582,69486.2
0.00238601,65240.1
0.00238621,61394.399999999994
0.0023864100000000003,57900.600000000006
0.0023866,54717.1
0.0023868,51808.50000000001
0.00238699,49144.2
0.0023872200000000002,46358.0
0.00238747,43517.6
0.00238772,40955.1
0.00238797,38635.2
0.0023882300000000003,36528.200000000004
0.00238848,34608.8
0.00238873,32855.3
0.00238898,31249.1
0.0023892799999999997,29556.9
0.00238961,27823.1
0.00238994,26261.100000000002
0.0023902700000000003,24848.8
0.0023906,23567.7
0.00239093,22402.1
0.00239126,21338.4
0.00239159,20365.199999999997
0.00239194,19424.9
0.0023923100000000004,18520.9
0.00239286,17308.2
0.00239341,16242.9
0.00239396,15301.9
0.00239451,14466.699999999999
0.0023949699999999997,13840.5
0.00239552,13161.7
0.00239607,12551.9
0.00239662,12001.800000000001
0.00239717,11503.6
0.0023980000000000004,10840.2
0.00239883,10262.500000000002
0.00239947,9863.24
0.00240021,9452.94
0.00240094,9085.13
0.00240204,8601.0
0.0024031400000000002,8184.64
0.00240425,7823.9400000000005
0.00240544,7484.72
0.00240682,7148.13
0.0024082,6859.69
0.00240957,6610.64
0.00241141,6328.2
0.00241325,6091.29
0.00241508,5890.6
0.0024169200000000004,5719.11
0.00241968,5505.4400000000005
0.0024224299999999997,5331.96
0.0024251900000000002,5188.900000000001
0.0024288599999999997,5034.46
0.00243253,4911.23
0.00243805,4768.3099999999995
0.0024435600000000004,4660.84
0.00244907,4577.96
0.00245641,4493.98
0.00246523,4420.429999999999
0.00247846,4344.47
0.0024960900000000003,4280.31
0.0025225399999999998,4224.33
0.00256222,4180.49
0.00263496,4144.54
0.00280028,4115.4400000000005
0.00316955,4094.31
0.00327035,4104.4
0.00330477,4126.53
0.00332444,4161.120000000001
0.0033367300000000004,4207.099999999999
0.0033441100000000004,4255.5
0.00335087,4327.36
0.00335517,4397.610000000001
0.0033582399999999997,4466.95
0.00336132,4560.64
0.00336408,4676.0599999999995
0.00336593,4776.83
0.0033677700000000004,4904.34
0.00336921,5028.55
0.00337074,5194.78
0.00337177,5330.5
0.00337279,5491.98
0.00337381,5686.15
0.00337458,5858.76
0.00337535,6060.21
0.00337612,6297.29
0.00337689,6578.95
0.00337746,6822.99
0.0033780299999999997,7104.2300000000005
0.00337859,7430.7
0.0033791600000000004,7812.65
0.00337954,8104.5599999999995
0.00337992,8431.97
0.00338033,8838.279999999999
0.00338075,9304.28
0.00338116,9842.52
0.00338144,10249.2
0.00338172,10701.0
0.00338199,11204.8
0.00338224,11692.400000000001
0.0033825400000000003,12392.4
0.00338285,13195.8
0.00338305,13799.4
0.00338326,14466.8
0.00338346,15207.5
0.00338367,16033.3
0.00338386,16909.5
0.00338405,17835.6
0.0033842300000000002,18870.8
0.00338442,20033.8
0.0033845999999999998,21347.7
0.00338474,22449.0
0.00338488,23665.3
0.00338502,25013.899999999998
0.00338515,26514.3
0.0033852500000000002,27610.399999999998
