E(MeV),xs(mb)
1.0e-11,29055.399999999998
1.03223e-11,28608.600000000002
1.06549e-11,28169.2
1.0998399999999998e-11,27736.6
1.13527e-11,27311.3
1.1718599999999999e-11,26892.6
1.2096199999999998e-11,26480.800000000003
1.24861e-11,26075.6
1.2888399999999999e-11,25677.0
1.3303799999999998e-11,25284.8
1.37325e-11,24899.0
1.41751e-11,24519.4
1.4631799999999997e-11,24146.100000000002
1.51034e-11,23778.7
1.5590099999999998e-11,23417.4
1.6092599999999998e-11,23061.8
1.66111e-11,22712.2
1.71465e-11,22368.199999999997
1.7699e-11,22029.899999999998
1.8269399999999998e-11,21697.1
1.88581e-11,21369.8
1.94659e-11,21047.699999999997
2.00931e-11,20731.1
2.0740699999999998e-11,20419.5
2.1408999999999998e-11,20113.2
2.2099099999999997e-11,19811.9
2.28111e-11,19515.6
2.3546399999999998e-11,19224.1
2.4305099999999997e-11,18937.5
2.50884e-11,18655.600000000002
2.5896799999999997e-11,18378.5
2.67315e-11,18105.899999999998
2.75928e-11,17837.9
2.8482199999999998e-11,17574.399999999998
2.93999e-11,17315.3
3.0347499999999995e-11,17060.5
3.13253e-11,16810.0
3.2335e-11,16563.7
3.33769e-11,16321.6
3.44526e-11,16083.5
3.55627e-11,15849.5
3.67089e-11,15619.400000000001
3.7891799999999997e-11,15393.300000000001
3.9113e-11,15170.999999999998
4.0373400000000003e-11,14952.6
4.1674599999999996e-11,14737.800000000001
4.3017399999999996e-11,14526.8
4.440389999999999e-11,14319.4
4.58347e-11,14115.5
4.7311899999999994e-11,13915.2
4.894e-11,13705.400000000001
5.06241e-11,13499.5
5.2366099999999994e-11,13297.4
5.4168099999999994e-11,13099.099999999999
5.6032099999999997e-11,12904.500000000002
5.79602e-11,12713.5
5.99547e-11,12526.2
6.201779999999999e-11,12342.4
6.415189999999999e-11,12162.1
6.63594e-11,11985.2
6.864289999999999e-11,11811.8
7.1005e-11,11641.699999999999
7.34484e-11,11474.800000000001
7.59758e-11,11311.199999999999
7.85902e-11,11150.800000000001
8.129459999999999e-11,10993.5
8.4092e-11,10839.300000000001
8.69858e-11,10688.2
8.997899999999999e-11,10540.0
9.307529999999999e-11,10394.8
9.627809999999999e-11,10252.5
9.95912e-11,10113.099999999999
1.03019e-10,9976.5
1.06564e-10,9842.689999999999
1.10231e-10,9711.61
1.1402399999999999e-10,9583.220000000001
1.1794700000000002e-10,9457.49
1.22006e-10,9334.369999999999
1.2620400000000002e-10,9213.83
1.30547e-10,9095.83
1.3532500000000002e-10,8973.21
1.40278e-10,8853.33
1.45412e-10,8736.21
1.50735e-10,8621.75
1.56251e-10,8509.96
1.61971e-10,8400.740000000002
1.67898e-10,8294.11
1.74044e-10,8189.97
1.80414e-10,8088.329999999999
1.87018e-10,7989.099999999999
1.93862e-10,7892.29
2.0095800000000003e-10,7797.81
2.0831300000000003e-10,7705.68
2.1593800000000001e-10,7615.79
2.2431500000000002e-10,7523.07
2.33017e-10,7432.8099999999995
2.42057e-10,7344.97
2.51448e-10,7259.509999999999
2.61203e-10,7176.38
2.7133600000000003e-10,7095.54
2.81863e-10,7016.94
2.92798e-10,6940.54
3.04799e-10,6862.25
3.1729500000000004e-10,6786.3
3.30301e-10,6712.67
3.43843e-10,6641.29
3.5793700000000003e-10,6572.12
3.72612e-10,6505.110000000001
3.87885e-10,6440.23
4.04641e-10,6374.150000000001
4.2212e-10,6310.31
4.4035500000000003e-10,6248.65
4.5937700000000005e-10,6189.110000000001
4.80237e-10,6128.82
5.020400000000001e-10,6070.76
5.24838e-10,6014.86
5.48666e-10,5961.0599999999995
5.747930000000001e-10,5906.87
6.02164e-10,5854.860000000001
6.308379999999999e-10,5804.9400000000005
6.62279e-10,5754.93
6.95282e-10,5707.06
7.29934e-10,5661.26
7.679330000000001e-10,5615.59
8.079100000000001e-10,5572.009999999999
8.51766e-10,5528.75
8.980060000000001e-10,5487.57
9.48759e-10,5446.86
1.0023800000000002e-9,5408.22
1.06127e-9,5370.17
1.12363e-9,5334.139999999999
1.1921600000000002e-9,5298.8
1.26755e-9,5264.2699999999995
1.3505600000000001e-9,5230.63
1.43901e-9,5199.0
1.5365100000000001e-9,5168.29
1.64407e-9,5138.57
1.76289e-9,5109.91
1.89429e-9,5082.35
2.0398100000000002e-9,5055.91
2.2058e-9,5029.96
2.39036e-9,5005.28
2.59584e-9,4981.88
2.8309300000000003e-9,4959.21
3.1004e-9,4937.400000000001
3.4099e-9,4916.54
3.7662000000000005e-9,4896.7
4.17735e-9,4877.94
4.66287e-9,4859.9800000000005
5.226890000000001e-9,4843.24
5.908890000000001e-9,4827.18
6.7224100000000006e-9,4812.2
7.712860000000001e-9,4798.14
8.9433e-9,4784.92
1.04803e-8,4772.67
1.24382e-8,4761.339999999999
1.4982e-8,4750.93
1.83928e-8,4741.37
2.30626e-8,4732.7300000000005
2.52522e-8,4729.74
2.5299999999999998e-8,4729.68
3.29543e-8,4722.2699999999995
4.4589400000000005e-8,4715.72
6.33394e-8,4710.03
9.60693e-8,4705.2
1.6025799999999998e-7,4701.2
3.09327e-7,4698.03
7.64647e-7,4695.62
0.00118029,4634.7
0.00122726,4643.3
0.00123849,4662.58
0.00124302,4685.88
0.00124627,4722.48
0.00124806,4760.43
0.00124926,4800.360000000001
0.0012503,4852.57
0.0012512,4919.32
0.00125195,5001.38
0.00125255,5095.889999999999
0.00125299,5193.7
0.0012534400000000002,5328.08
0.0012537400000000001,5449.3099999999995
0.00125397,5566.27
0.00125416,5695.509999999999
0.00125434,5850.7699999999995
0.00125446,5983.51
0.0012545800000000001,6150.83
0.00125467,6307.69
0.0012547600000000002,6500.81
0.00125485,6741.73
0.00125491,6936.08
0.00125497,7163.71
0.00125503,7467.75
0.0012550900000000002,7767.5599999999995
0.00125515,8117.4
0.0012552000000000002,8526.12
0.00125526,9003.349999999999
0.0012553000000000002,9365.08
0.00125533,9766.14
0.0012553700000000002,10210.300000000001
0.00125541,10702.0
0.0012554399999999998,11245.7
0.00125548,11846.699999999999
0.00125552,12509.999999999998
0.00125556,13241.6
0.00125559,14047.300000000001
0.00125563,14933.9
0.0012556700000000002,15907.800000000001
0.0012557100000000002,16976.3
0.0012557400000000002,18146.4
0.00125578,19426.5
0.00125582,20823.999999999996
0.00125586,22347.7
0.00125589,24005.399999999998
0.00125593,25807.000000000004
0.0012559700000000001,27759.999999999996
0.0012560100000000001,29874.2
0.0012560400000000002,32157.6
0.0012560800000000001,34620.4
0.00125612,37269.9
0.0012561500000000001,40115.600000000006
0.00125619,43164.5
0.0012562299999999999,46343.2
0.00125626,49728.899999999994
0.00125631,54578.100000000006
0.00125636,59821.299999999996
0.0012564100000000001,65469.5
0.00125646,71530.5
0.00125651,78008.3
0.0012565599999999999,84903.6
0.0012566200000000002,94251.79999999999
0.0012566699999999999,103316.00000000001
0.00125673,112893.0
0.0012568,126411.99999999999
0.00125688,140689.0
0.00125698,160932.0
0.00125724,215987.00000000003
0.00125737,241067.0
0.00125746,257580.0
0.0012575400000000001,271017.0
0.00125761,281147.0
0.00125768,290637.0
0.00125776,298761.0
0.00125784,303939.0
0.00125791,307140.0
0.0012579800000000001,308301.0
0.00125806,307111.0
0.00125812,304430.0
0.00125819,300256.0
0.00125827,292784.0
0.00125834,283448.0
0.0012584200000000001,273193.0
0.0012585,259518.0
0.0012586,241200.0
0.00125872,217069.0
0.00125898,163125.0
0.00125909,140608.0
0.00125917,126348.0
0.00125924,112849.0
0.0012593,103282.0
0.00125935,94232.4
0.0012594099999999999,85718.8
0.00125946,77756.2
0.00125952,70347.7
0.00125957,63932.6
0.00125962,58196.2
0.00125967,52893.9
0.00125972,48009.3
0.0012597700000000001,43530.4
0.00125981,40760.7
0.0012598400000000001,38156.0
0.0012598800000000001,35712.4
0.0012599100000000002,33422.700000000004
0.0012599400000000002,31281.500000000004
0.0012599800000000002,29281.100000000002
0.00126001,27416.3
0.00126004,25679.8
0.00126008,24065.9
0.00126011,22407.300000000003
0.00126015,20883.3
0.00126019,19484.9
0.00126023,18204.3
0.00126026,17032.9
0.0012603,15963.5
0.00126034,14988.300000000001
0.0012603800000000002,14100.699999999999
0.00126041,13293.3
0.0012604500000000002,12560.3
0.0012604900000000002,11895.4
0.00126053,11293.1
0.00126056,10747.7
0.0012606,10254.6
0.00126064,9809.01
0.00126067,9406.689999999999
0.0012607200000000001,9009.080000000002
0.00126076,8654.12
0.0012607999999999999,8337.210000000001
0.0012608600000000001,7924.5
0.00126092,7576.31
0.00126098,7282.110000000001
0.00126104,7033.070000000001
0.00126109,6888.35
0.0012611699999999998,6641.429999999999
0.00126125,6440.69
0.0012613300000000002,6275.91
0.00126144,6095.0199999999995
0.0012615600000000001,5951.46
0.00126171,5800.5
0.00126186,5681.3099999999995
0.00126208,5541.31
0.00126238,5400.38
0.00126268,5292.6
0.00126312,5170.860000000001
0.00126357,5080.9
0.0012641,5002.34
0.00126484,4921.98
0.00126579,4852.99
0.00126694,4797.990000000001
0.00126861,4748.5
0.00127097,4708.719999999999
0.00127468,4677.09
0.00128325,4649.530000000001
0.0013108599999999998,4631.77
0.00167013,4607.280000000001
0.00167463,4611.98
0.0017196800000000001,4604.3099999999995
0.0023746,4550.77
0.00271846,4495.5199999999995
0.00291627,4436.63
0.00304845,4369.08
0.00313889,4293.9400000000005
0.00320168,4213.879999999999
0.003246,4132.22
0.00327819,4051.0299999999997
0.00330642,3955.72
0.00332462,3876.44
0.0033430900000000004,3775.16
0.0033557500000000002,3689.0499999999997
0.00336789,3589.03
0.00337844,3483.4700000000003
0.00338899,3354.7400000000002
0.0033969100000000004,3238.03
0.0034048200000000002,3098.47
0.0034101,2989.2400000000002
0.00341538,2863.75
0.0034206500000000003,2718.39
0.00342461,2593.19
0.00342857,2451.15
0.00343121,2345.49
0.00343384,2229.69
0.00343648,2102.35
0.00343912,1961.8899999999999
0.0034411000000000003,1846.8400000000001
0.0034430800000000003,1722.5900000000001
0.00344506,1588.27
0.0034470399999999997,1443.13
0.0034484900000000002,1329.4299999999998
0.0034503,1178.31
0.00345175,1050.27
0.0034533000000000003,907.037
0.00345515,729.539
0.0034574600000000003,504.83200000000005
0.00345825,430.273
0.00345885,375.803
0.00345937,331.418
0.00345978,297.89
0.0034600900000000003,274.173
0.00346029,259.156
0.0034606100000000002,237.18099999999998
0.00346086,222.015
0.0034611,208.12599999999998
0.00346134,195.667
0.0034615,188.238
0.00346167,181.093
0.00346186,174.504
0.00346204,169.113
0.00346218,165.91899999999998
0.00346232,163.505
0.00346249,161.709
0.0034626600000000002,161.20399999999998
0.00346277,161.633
0.0034628899999999997,162.808
0.00346304,165.488
0.00346318,169.105
0.0034633,173.262
0.00346342,178.67
0.00346355,185.05700000000002
0.00346364,190.372
0.0034637699999999997,198.99599999999998
0.0034638900000000003,208.95299999999997
0.00346401,219.22799999999998
0.00346411,229.01500000000001
0.00346423,242.585
0.00346435,257.726
0.00346446,272.19
0.00346459,291.80199999999996
0.00346473,313.53200000000004
0.0034648599999999997,337.517
0.00346499,363.906
0.0034651200000000004,392.855
0.0034652500000000004,424.533
0.00346538,459.12199999999996
0.00346549,489.98900000000003
0.00346562,529.353
0.00346575,572.045
0.0034658799999999997,618.283
0.00346601,668.309
0.0034661400000000004,722.374
0.00346626,776.125
0.00346637,833.791
0.00346649,895.6340000000001
0.00346661,961.921
0.0034667300000000003,1032.95
0.00346686,1117.8300000000002
0.003467,1214.18
0.00346714,1318.53
0.00346728,1431.54
0.00346742,1553.9099999999999
0.0034675500000000002,1686.4399999999998
0.0034676900000000003,1829.98
0.0034678300000000003,1985.5100000000002
0.0034679700000000003,2154.0499999999997
0.00346811,2336.8
0.00346825,2535.02
0.00346839,2750.21
0.00346852,2983.93
0.0034686599999999997,3237.99
0.0034687999999999997,3514.4
0.00346894,3815.44
0.00346908,4143.63
0.00346922,4501.89
0.00346936,4893.41
0.00346949,5321.97
0.00346963,5791.68
0.00346977,6307.419999999999
0.00346991,6874.64
0.00347005,7499.679999999999
0.00347019,8189.6900000000005
0.00347028,8689.85
0.00347037,9225.36
0.0034704600000000003,9799.17
0.00347056,10437.6
0.00347065,11124.7
0.00347075,11865.2
0.00347085,12663.9
0.00347094,13526.400000000001
0.00347104,14458.5
0.0034711300000000002,15466.9
0.00347123,16558.600000000002
0.00347131,17589.8
0.0034714,18696.8
0.0034714800000000003,19886.0
0.0034715600000000003,21163.8
0.00347165,22537.8
0.00347173,24015.399999999998
0.00347181,25605.1
0.0034719000000000004,27315.399999999998
0.00347198,29051.300000000003
0.00347206,30911.5
0.00347214,32905.3
0.0034722200000000003,35041.3
0.0034722900000000003,37330.0
0.0034723700000000002,39780.6
0.0034724499999999998,42404.1
0.00347253,45210.600000000006
0.0034726400000000004,49469.6
0.00347275,54140.0
0.00347286,59253.600000000006
0.00347297,64841.4
0.0034730900000000003,70934.7
0.0034732,77562.5
0.0034733100000000003,84753.0
0.00347342,92529.40000000001
0.00347353,100915.0
0.00347364,109925.0
0.00347371,116283.0
0.00347384,127848.0
0.0034739700000000003,140244.0
0.00347409,153460.0
0.00347422,167460.0
0.0034743900000000004,187905.0
0.00347457,209554.99999999997
0.00347484,245486.0
0.0034752999999999997,306341.0
0.0034754900000000003,330753.0
0.0034757,355999.0
0.00347586,373109.0
0.00347598,385156.0
0.00347612,397302.0
0.00347626,407432.0
0.00347641,415371.0
0.0034765700000000004,421688.0
0.0034767100000000005,424423.99999999994
0.0034768200000000003,424983.0
0.0034769199999999997,424203.0
0.00347709,420228.99999999994
0.00347726,413049.0
0.00347742,403626.00000000006
0.00347757,392718.0
0.00347771,380024.0
0.00347793,358240.0
0.00347816,334031.0
0.00347891,246664.0
0.0034790999999999997,225620.99999999997
0.0034792900000000003,205721.0
0.00347944,190154.0
0.0034796000000000002,175596.0
0.00347976,162085.0
0.00347992,149631.0
0.00348008,138220.0
0.0034801899999999998,130666.0
0.00348031,123137.99999999999
0.00348043,116158.99999999999
0.0034805500000000002,109700.0
0.00348068,103732.0
0.0034808,98222.1
0.0034809199999999998,93140.5
0.0034810400000000003,88455.6
0.0034812,82802.79999999999
0.00348135,78042.8
0.0034815000000000002,73734.90000000001
0.00348165,69830.5
0.0034817999999999997,66286.6
0.0034819,64104.5
0.0034821,60125.200000000004
0.0034823000000000002,56597.299999999996
0.0034825,53455.399999999994
0.0034827,50644.600000000006
0.0034829,48149.6
0.0034831,45894.3
0.00348336,43206.2
0.0034836299999999997,40826.9
0.0034838900000000003,38707.5
0.00348416,36808.299999999996
0.0034844200000000002,35097.6
0.00348468,33549.1
0.00348508,31484.2
0.00348547,29678.5
0.00348587,28087.100000000002
0.00348627,26674.899999999998
0.0034866600000000004,25413.899999999998
0.00348711,24130.600000000002
0.0034876800000000004,22724.3
0.0034882399999999997,21497.4
0.00348881,20418.3
0.0034893700000000003,19462.5
0.0034899300000000005,18610.4
0.0034907,17596.9
0.00349146,16714.4
0.0034922200000000003,15939.7
0.00349298,15254.6
0.00349374,14644.900000000001
0.00349466,13996.900000000001
0.00349565,13380.4
0.00349663,12837.5
0.00349795,12207.5
0.00349927,11664.9
0.00350059,11193.0
0.00350191,10778.9
0.00350323,10412.999999999998
0.00350518,9945.31
0.00350706,9558.89
0.00350894,9223.66
0.00351082,8930.43
0.0035133200000000003,8592.42
0.0035158900000000002,8296.060000000001
0.00351853,8034.44
0.00352249,7704.76
0.00352645,7432.91
0.0035304000000000004,7205.009999999999
0.0035356800000000002,6953.38
0.00354096,6746.1
0.00354623,6572.73
0.00355415,6360.12
0.0035620599999999997,6189.5199999999995
0.0035726200000000003,6008.429999999999
0.00358317,5865.160000000001
0.00359478,5738.71
0.00361166,5595.1
0.0036306600000000004,5472.59
0.00365414,5358.55
0.00368342,5253.63
0.00372352,5151.22
0.0037784,5055.92
0.0038512100000000003,4973.02
0.00395885,4896.39
0.004120790000000001,4829.139999999999
0.00437274,4771.88
0.00482112,4721.03
0.00495388,4711.400000000001
0.00496068,4716.84
0.00498292,4709.49
0.00561389,4679.33
0.00561761,4683.76
0.00561865,4703.59
0.00561926,4735.48
0.0056197800000000004,4784.6
0.00562025,4853.3099999999995
0.00562069,4937.67
0.0056213800000000005,5108.71
0.00562226,5342.55
0.0056227000000000004,5429.38
0.0056231200000000005,5478.4800000000005
0.00562339,5487.41
0.0056238,5466.09
0.00562418,5412.66
0.00562465,5309.57
0.00562587,4987.78
0.005626310000000001,4893.39
0.00562674,4819.47
0.00562726,4757.4
0.00562778,4719.34
0.00562848,4693.72
0.00563012,4679.88
0.00591679,4669.42
0.0059238400000000005,4681.5199999999995
0.00593044,4669.030000000001
0.00631663,4658.83
0.006323820000000001,4662.0
0.0069846000000000005,4645.120000000001
0.00701647,4651.73
0.007021390000000001,4669.570000000001
0.0070225700000000005,4697.62
0.00702304,4728.6900000000005
0.0070234,4769.83
0.00702375,4836.610000000001
0.007023990000000001,4902.099999999999
0.007024219999999999,4990.599999999999
0.007024440000000001,5097.68
0.00702466,5235.88
0.00702487,5412.27
0.00702502,5554.97
0.00702516,5720.71
0.00702531,5912.13
0.00702545,6121.360000000001
0.00702558,6346.93
0.00702571,6600.29
0.00702584,6883.46
0.00702597,7198.389999999999
0.0070260999999999995,7546.88
0.0070262300000000005,7930.51
0.007026360000000001,8350.630000000001
0.00702655,9001.99
0.00702672,9701.17
0.007026900000000001,10469.900000000001
0.00702708,11306.400000000001
0.0070272600000000005,12206.6
0.00702744,13201.0
0.0070277000000000004,14710.5
0.007028520000000001,19665.600000000002
0.00702882,21311.5
0.0070290100000000005,22297.3
0.0070292,23124.5
0.00702942,23927.2
0.00702957,24377.0
0.0070297400000000005,24735.3
0.00702994,25002.0
0.0070301,25073.699999999997
0.00703029,24989.4
0.007030450000000001,24776.899999999998
0.0070306100000000005,24449.3
0.0070307500000000005,24047.7
0.00703096,23319.5
0.00703114,22553.7
0.0070313400000000005,21599.300000000003
0.00703159,20212.2
0.0070319399999999995,18157.1
0.00703247,14967.699999999999
0.00703273,13446.1
0.0070329400000000005,12300.800000000001
0.00703315,11235.599999999999
0.00703331,10495.300000000001
0.00703346,9808.5
0.00703363,9126.27
0.00703377,8645.49
0.0070339,8202.61
0.007034029999999999,7796.83
0.00703416,7426.9800000000005
0.00703429,7091.62
0.00703442,6789.09
0.0070345500000000005,6517.53
0.00703468,6274.95
0.00703482,6059.31
0.0070350099999999995,5781.82
0.00703521,5553.26
0.00703541,5366.91
0.0070355999999999995,5216.4400000000005
0.00703578,5106.91
0.007036,4997.84
0.00703623,4914.81
0.00703656,4827.110000000001
0.0070369000000000004,4770.72
0.00703745,4718.7
0.00703818,4689.68
0.00704042,4666.75
0.00704953,4650.7300000000005
0.007068660000000001,4645.86
0.007072070000000001,4655.070000000001
0.00707318,4681.25
0.0070741300000000005,4733.27
0.007074970000000001,4806.58
0.00707644,4949.45
0.00707717,4987.04
0.00707745,4990.41
0.00707809,4973.3
0.00707881,4919.8
0.0070803,4770.62
0.00708123,4703.66
0.00708208,4669.16
0.0070831999999999996,4650.74
0.00709199,4644.36
0.00730084,4639.87
0.00731204,4640.799999999999
0.0115024,4578.45
0.011731700000000001,4570.66
0.011737200000000001,4577.05
0.011742500000000001,4628.82
0.0117426,4628.9
0.011745000000000002,4608.25
0.011748000000000001,4576.6
0.0117588,4569.530000000001
0.0121976,4537.410000000001
0.0123894,4498.0
0.012486500000000001,4452.75
0.01254,4405.66
0.0125731,4357.820000000001
0.0126036,4287.05
0.0126227,4216.490000000001
0.0126379,4133.06
0.012649300000000002,4041.3100000000004
0.0126584,3938.4
0.0126637,3857.88
0.012669,3754.96
0.012673000000000002,3656.77
0.012677,3532.7099999999996
0.0126797,3430.0299999999997
0.0126823,3305.35
0.012684299999999999,3192.7799999999997
0.0126863,3058.7200000000003
0.0126877,2954.2000000000003
0.0126888,2853.53
0.0126899,2739.86
0.0126911,2610.6
0.0126922,2462.73
0.0126932,2314.35
0.012694200000000001,2148.58
0.0126957,1887.33
0.0126961,1810.2
0.0126965,1767.58
0.0126968,1736.42
0.012697,1723.57
0.0126972,1721.3899999999999
0.012697400000000001,1725.49
0.0126975,1739.6100000000001
0.012697700000000001,1761.35
0.0126979,1793.28
0.012698000000000001,1836.8899999999999
0.0126982,1893.67
0.0126984,1965.35
0.0126985,2053.68
0.0126987,2122.79
0.0126988,2200.67
0.012698899999999999,2288.08
0.012699,2385.46
0.012699100000000001,2493.57
0.012699199999999999,2612.8900000000003
0.0126993,2764.17
0.012699499999999999,2931.92
0.0126996,3117.29
0.012699700000000001,3321.0
0.0126998,3544.33
0.012700000000000001,3787.78
0.0127001,4052.4699999999993
0.0127002,4338.87
0.0127003,4631.57
0.0127005,4944.78
0.0127006,5395.7300000000005
0.012700800000000002,5885.43
0.0127009,6323.629999999999
0.012701100000000002,6885.62
0.0127012,7487.4
0.012701400000000002,8238.720000000001
0.0127016,9041.83
0.012701800000000001,9768.62
0.012702,10955.6
0.0127023,12492.8
0.0127027,14587.1
0.012703500000000001,19072.8
0.012703899999999999,21096.0
0.0127042,22490.7
0.0127045,23739.8
