E(MeV),xs(mb)
1.0e-11,4.34559e6
1.03223e-11,4.27721e6
1.06549e-11,4.20993e6
1.0998399999999998e-11,4.1436900000000005e6
1.13527e-11,4.0785099999999995e6
1.1718599999999999e-11,4.01434e6
1.2096199999999998e-11,3.9512e6
1.24861e-11,3.88902e6
1.2888399999999999e-11,3.82785e6
1.3303799999999998e-11,3.76762e6
1.37325e-11,3.70836e6
1.41751e-11,3.65001e6
1.4631799999999997e-11,3.5926e6
1.51034e-11,3.53608e6
1.5590099999999998e-11,3.48046e6
1.6092599999999998e-11,3.4257e6
1.66111e-11,3.37181e6
1.71465e-11,3.31876e6
1.7699e-11,3.26656e6
1.8269399999999998e-11,3.21517e6
1.88581e-11,3.1646e6
1.94659e-11,3.11481e6
2.00931e-11,3.06582e6
2.0740699999999998e-11,3.01758e6
2.1408999999999998e-11,2.97012e6
2.2099099999999997e-11,2.92339e6
2.28111e-11,2.87741e6
2.3546399999999998e-11,2.83214e6
2.4305099999999997e-11,2.7876e6
2.50884e-11,2.74374e6
2.5896799999999997e-11,2.70059e6
2.67315e-11,2.6581e6
2.75928e-11,2.6163e6
2.8482199999999998e-11,2.57514e6
2.93999e-11,2.53464e6
3.0347499999999995e-11,2.49476e6
3.13253e-11,2.45553e6
3.2335e-11,2.4169e6
3.33769e-11,2.37889e6
3.44526e-11,2.34147e6
3.55627e-11,2.30464e6
3.67089e-11,2.26839e6
3.7891799999999997e-11,2.23271e6
3.9113e-11,2.19759e6
4.0373400000000003e-11,2.16303e6
4.1674599999999996e-11,2.12901e6
4.3017399999999996e-11,2.09553e6
4.440389999999999e-11,2.06256e6
4.58347e-11,2.0301300000000002e6
4.7311899999999994e-11,1.9982e6
4.883639999999999e-11,1.96677e6
5.0410399999999995e-11,1.93584e6
5.20348e-11,1.9054e6
5.37119e-11,1.87543e6
5.54426e-11,1.84594e6
5.7229499999999995e-11,1.8169e6
5.907359999999999e-11,1.78833e6
6.09775e-11,1.76021e6
6.29424e-11,1.73253e6
6.497099999999999e-11,1.70528e6
6.70645e-11,1.67847e6
6.9226e-11,1.65207e6
7.145659999999999e-11,1.62609e6
7.37596e-11,1.60052e6
7.61364e-11,1.57536e6
7.85902e-11,1.55058e6
8.11227e-11,1.5262e6
8.37372e-11,1.5022e6
8.643549999999999e-11,1.47858e6
8.922119999999998e-11,1.45533e6
9.209619999999999e-11,1.43245e6
9.506439999999999e-11,1.40993e6
9.81277e-11,1.38776e6
1.01291e-10,1.36594e6
1.04554e-10,1.34447e6
1.07924e-10,1.32332e6
1.11402e-10,1.30252e6
1.1499200000000001e-10,1.28204e6
1.1869700000000001e-10,1.26189e6
1.22523e-10,1.24205e6
1.26471e-10,1.22252e6
1.30547e-10,1.2033e6
1.34754e-10,1.18439e6
1.3909700000000002e-10,1.16576e6
1.43579e-10,1.14744e6
1.48207e-10,1.1294e6
1.52982e-10,1.11165e6
1.57913e-10,1.09417e6
1.6300100000000001e-10,1.07697e6
1.68254e-10,1.06004e6
1.73676e-10,1.04338e6
1.79274e-10,1.02698e6
1.8505000000000002e-10,1.01084e6
1.91014e-10,994943.9999999999
1.97169e-10,979307.0
2.03524e-10,963911.0
2.1008200000000003e-10,948761.0
2.16853e-10,933845.0
2.2384e-10,919168.0
2.31055e-10,904718.0000000001
2.385e-10,890498.0
2.46187e-10,876498.9999999999
2.5412e-10,862723.0000000001
2.6231e-10,849159.0
2.70762e-10,835812.0
2.7948900000000003e-10,822672.0
2.88494e-10,809741.0
2.9779300000000004e-10,797010.0
3.07388e-10,784482.0
3.1729500000000004e-10,772148.0
3.27519e-10,760010.0
3.38075e-10,748059.0
3.4896900000000003e-10,736299.0
3.6021600000000004e-10,724721.0
3.7182300000000004e-10,713327.0
3.83807e-10,702109.0
3.96174e-10,691069.0
4.08943e-10,680200.0
4.2212e-10,669504.0
4.3572499999999996e-10,658973.0
4.4976500000000005e-10,648609.0
4.6426100000000007e-10,638405.0
4.79221e-10,628363.0
4.94666e-10,618476.0
5.10605e-10,608746.0
5.270620000000001e-10,599166.0
5.440450000000001e-10,589737.0
5.6158e-10,580454.0
5.796750000000001e-10,571318.0
5.98358e-10,562323.0
6.176389999999999e-10,553470.0
6.37545e-10,544754.0
6.58089e-10,536175.0
6.79298e-10,527729.0
7.01188e-10,519414.99999999994
7.237860000000001e-10,511230.0
7.47109e-10,503174.0
7.71188e-10,495241.00000000006
7.960380000000001e-10,487434.0
8.21693e-10,479746.99999999994
8.48171e-10,472180.0
8.75507e-10,464730.00000000006
9.037190000000002e-10,457397.0
9.32845e-10,450176.0
9.62904e-10,443069.0
9.93937e-10,436069.99999999994
1.0259700000000001e-9,429182.00000000006
1.05903e-9,422398.99999999994
1.09316e-9,415721.99999999994
1.12839e-9,409147.0
1.16475e-9,402675.0
1.2022900000000002e-9,396302.0
1.2410300000000002e-9,390028.0
1.28103e-9,383850.0
1.3223100000000002e-9,377769.0
1.36492e-9,371780.0
1.4089000000000002e-9,365884.0
1.4543100000000001e-9,360079.0
1.5011699999999999e-9,354363.0
1.5495600000000002e-9,348734.0
1.5994900000000002e-9,343193.0
1.6510400000000001e-9,337736.0
1.7042400000000001e-9,332363.0
1.75917e-9,327072.0
1.81585e-9,321862.0
1.87438e-9,316731.0
1.9347700000000003e-9,311680.0
1.99713e-9,306704.0
2.06148e-9,301806.0
2.1279200000000002e-9,296981.0
2.19649e-9,292230.0
2.26728e-9,287551.0
2.3403400000000002e-9,282943.0
2.4157700000000002e-9,278405.0
2.49362e-9,273936.0
2.5739800000000002e-9,269534.0
2.65692e-9,265199.0
2.7425500000000002e-9,260929.0
2.8309300000000003e-9,256724.0
2.92217e-9,252582.0
3.01633e-9,248502.0
3.11354e-9,244483.0
3.21387e-9,240525.0
3.3174500000000004e-9,236626.0
3.42435e-9,232785.00000000003
3.53471e-9,229002.00000000003
3.6486100000000003e-9,225274.99999999997
3.7662000000000005e-9,221603.0
3.88757e-9,217986.0
4.01286e-9,214423.0
4.14217e-9,210912.0
4.2756600000000005e-9,207453.00000000003
4.41344e-9,204046.0
4.55568e-9,200688.00000000003
4.7024800000000005e-9,197381.0
4.85404e-9,194121.0
5.01045e-9,190910.0
5.17193e-9,187745.0
5.338590000000001e-9,184627.0
5.510650000000001e-9,181555.0
5.688220000000001e-9,178527.0
5.871540000000001e-9,175543.0
6.06075e-9,172603.0
6.256080000000001e-9,169704.0
6.4576700000000005e-9,166849.0
6.665790000000001e-9,164033.0
6.8805900000000005e-9,161259.0
7.1023400000000005e-9,158525.0
7.33121e-9,155830.0
7.56748e-9,153173.0
7.81133e-9,150554.0
8.06308e-9,147972.0
8.32291e-9,145428.0
8.59114e-9,142919.0
8.86798e-9,140446.0
9.13443e-9,138170.0
9.40888e-9,135923.0
9.69157e-9,133706.0
9.98277e-9,131519.0
1.02827e-8,129360.00000000001
1.05917e-8,127228.99999999999
1.09099e-8,125127.00000000001
1.12377e-8,123052.0
1.1575299999999999e-8,121004.0
1.19231e-8,118982.00000000001
1.2281400000000001e-8,116988.0
1.26504e-8,115019.0
1.30305e-8,113076.0
1.3422000000000001e-8,111158.0
1.3825300000000001e-8,109264.0
1.4240600000000001e-8,107396.0
1.46685e-8,105551.0
1.51092e-8,103731.0
1.55632e-8,101933.99999999999
1.6030800000000002e-8,100160.0
1.65125e-8,98409.09999999999
1.7008600000000002e-8,96680.8
1.75197e-8,94975.0
1.8046e-8,93291.2
1.85883e-8,91629.29999999999
1.91468e-8,89988.9
1.9722e-8,88369.9
2.0314600000000002e-8,86771.99999999999
2.0924999999999997e-8,85194.9
2.15537e-8,83638.5
2.22013e-8,82102.40000000001
2.2868300000000003e-8,80586.5
2.35057e-8,79196.7
2.41608e-8,77824.09999999999
2.4834200000000003e-8,76468.2
2.52522e-8,75653.0
2.5299999999999998e-8,75561.1
2.60052e-8,74233.09999999999
2.67299e-8,72921.8
2.74749e-8,71626.59999999999
2.82406e-8,70347.7
2.90277e-8,69084.7
2.98366e-8,67837.8
3.0668300000000003e-8,66606.5
3.15229e-8,65391.1
3.24015e-8,64191.1
3.33045e-8,63006.700000000004
3.42328e-8,61837.600000000006
3.51868e-8,60683.99999999999
3.61675e-8,59545.3
3.71754e-8,58421.9
3.8211599999999997e-8,57313.299999999996
3.9276399999999996e-8,56219.799999999996
4.03712e-8,55141.0
4.1408699999999994e-8,54158.4
4.24728e-8,53188.2
4.3564299999999995e-8,52230.600000000006
4.4683900000000006e-8,51285.4
4.58322e-8,50352.6
4.70101e-8,49432.200000000004
4.82182e-8,48524.0
4.94573e-8,47628.1
5.07283e-8,46744.399999999994
5.2032e-8,45872.9
5.3369200000000004e-8,45013.50000000001
5.4740700000000004e-8,44166.2
5.61475e-8,43331.0
5.7590399999999997e-8,42507.799999999996
5.907040000000001e-8,41696.600000000006
6.05885e-8,40897.50000000001
6.21455e-8,40110.299999999996
6.37426e-8,39335.0
6.524250000000001e-8,38634.9
6.67779e-8,37944.5
6.834920000000001e-8,37264.2
6.99578e-8,36593.7
7.160389999999999e-8,35933.1
7.32891e-8,35282.200000000004
7.50136e-8,34641.2
7.6779e-8,34009.8
7.85856e-8,33388.3
8.04351e-8,32776.4
8.23277e-8,32174.399999999998
8.42653e-8,31581.899999999998
8.62481e-8,30999.2
8.82779e-8,30426.000000000004
9.035510000000001e-8,29862.5
9.24815e-8,29308.399999999998
9.465759999999999e-8,28764.0
9.68854e-8,28228.9
9.916510000000001e-8,27703.4
1.01499e-7,27187.199999999997
1.03887e-7,26680.5
1.06332e-7,26183.0
1.0883400000000001e-7,25694.8
1.11395e-7,25215.800000000003
1.1401699999999998e-7,24746.0
1.16453e-7,24326.8
1.1894199999999998e-7,23915.1
1.2148399999999998e-7,23510.8
1.2407999999999998e-7,23114.0
1.26731e-7,22724.600000000002
1.2944e-7,22342.399999999998
1.3220599999999999e-7,21967.6
1.3503099999999999e-7,21599.9
1.37917e-7,21239.4
1.4086399999999998e-7,20886.100000000002
1.4387499999999998e-7,20539.800000000003
1.46949e-7,20200.6
1.5009e-7,19868.3
1.53297e-7,19542.9
1.56573e-7,19224.3
1.59919e-7,18912.6
1.63337e-7,18607.6
1.66827e-7,18309.3
1.70392e-7,18017.6
1.7403399999999998e-7,17732.399999999998
1.77753e-7,17453.6
1.8155099999999998e-7,17181.2
1.85431e-7,16915.100000000002
1.8939399999999998e-7,16655.199999999997
1.93441e-7,16401.5
1.9757499999999997e-7,16153.900000000001
2.01798e-7,15912.4
2.0611e-7,15676.8
2.10515e-7,15447.2
2.15014e-7,15223.3
2.1960799999999996e-7,15005.2
2.24302e-7,14792.8
2.29095e-7,14585.999999999998
2.33991e-7,14384.699999999999
2.3899099999999997e-7,14188.8
2.4461599999999997e-7,13979.6
2.50372e-7,13776.8
2.56264e-7,13580.2
2.6229399999999995e-7,13389.9
2.68467e-7,13205.7
2.74784e-7,13027.5
2.81251e-7,12855.2
2.87869e-7,12688.8
2.94644e-7,12528.0
3.0157699999999995e-7,12372.9
3.08674e-7,12223.4
3.15937e-7,12079.3
3.23373e-7,11940.599999999999
3.30982e-7,11807.300000000001
3.38771e-7,11679.1
3.4674299999999997e-7,11556.2
3.54903e-7,11438.3
3.63254e-7,11325.5
3.72589e-7,11208.199999999999
3.82165e-7,11096.699999999999
3.9198599999999995e-7,10990.9
4.02059e-7,10891.0
4.12392e-7,10796.699999999999
4.2298999999999995e-7,10708.2
4.3385999999999994e-7,10625.500000000002
4.4501e-7,10548.5
4.5644600000000004e-7,10477.4
4.68177e-7,10411.999999999998
4.80208e-7,10352.6
4.925489999999999e-7,10299.3
5.052069999999999e-7,10252.4
5.181899999999999e-7,10211.9
5.31507e-7,10178.199999999999
5.45166e-7,10151.5
5.57997e-7,10133.7
5.71126e-7,10122.599999999999
5.845679999999999e-7,10118.7
5.97421e-7,10122.0
6.10188e-7,10132.300000000001
6.23228e-7,10150.1
6.35204e-7,10173.2
6.47406e-7,10203.7
6.59846e-7,10242.3
6.71103e-7,10284.1
6.825529999999999e-7,10333.8
6.94197e-7,10392.300000000001
7.045469999999999e-7,10451.5
7.15055e-7,10519.0
7.24184e-7,10584.199999999999
7.33431e-7,10657.000000000002
7.42795e-7,10738.099999999999
7.50689e-7,10812.800000000001
7.586689999999999e-7,10894.6
7.667309999999999e-7,10984.1
7.74882e-7,11082.4
7.83116e-7,11190.1
7.89768e-7,11283.9
7.96476e-7,11385.199999999999
8.03242e-7,11494.599999999999
8.100639999999999e-7,11612.9
8.169449999999999e-7,11741.2
8.22146e-7,11844.6
8.273759999999999e-7,11954.499999999998
8.32643e-7,12071.7
8.3794e-7,12196.6
8.432740000000001e-7,12330.000000000002
8.48638e-7,12472.6
8.54041e-7,12625.3
8.594739999999999e-7,12789.0
8.649449999999999e-7,12964.800000000001
8.686109999999999e-7,13089.2
8.72292e-7,13219.9
8.75989e-7,13357.4
8.797009999999999e-7,13502.0
8.834289999999999e-7,13654.2
8.871729999999999e-7,13814.699999999999
8.90933e-7,13983.9
8.947089999999999e-7,14162.699999999999
8.985010000000001e-7,14351.6
9.023079999999999e-7,14551.5
9.06133e-7,14763.2
9.090109999999999e-7,14930.300000000001
9.118969999999999e-7,15105.0
9.14795e-7,15288.0
9.17702e-7,15479.5
9.20617e-7,15680.099999999999
9.2354e-7,15890.4
9.264749999999999e-7,16111.4
9.29419e-7,16343.300000000001
9.32371e-7,16587.0
9.35332e-7,16843.3
9.38305e-7,17113.4
9.41286e-7,17398.0
9.44276e-7,17698.0
9.46274e-7,17907.3
9.482779999999999e-7,18124.3
9.50285e-7,18349.6
9.522959999999999e-7,18583.4
9.54312e-7,18826.3
9.563319999999999e-7,19078.7
9.583569999999999e-7,19341.1
9.60385e-7,19614.0
9.62418e-7,19898.0
9.64455e-7,20193.6
9.66497e-7,20501.5
9.68543e-7,20822.4
9.70593e-7,21157.0
9.72647e-7,21506.0
9.74706e-7,21870.3
9.76769e-7,22250.7
9.78837e-7,22648.100000000002
9.809089999999998e-7,23063.5
9.82466e-7,23387.600000000002
9.84023e-7,23722.3
9.85587e-7,24069.600000000002
9.87151e-7,24428.6
9.887169999999998e-7,24800.100000000002
9.90288e-7,25185.399999999998
9.91858e-7,25583.9
9.93433e-7,25997.4
9.9501e-7,26425.9
9.96587e-7,26869.399999999998
9.981709999999999e-7,27330.600000000002
9.99755e-7,27808.199999999997
1.0013399999999999e-6,28303.600000000002
1.0029300000000002e-6,28818.399999999998
1.00452e-6,29351.8
1.00629e-6,29968.499999999996
1.00815e-6,30643.600000000002
1.01001e-6,31347.7
1.01187e-6,32082.1
1.01373e-6,32848.0
1.01558e-6,33640.6
1.0174e-6,34454.0
1.01922e-6,35301.3
1.0210399999999999e-6,36183.8
1.02285e-6,37102.6
1.02467e-6,38059.0
1.0264899999999998e-6,39054.0
1.02831e-6,40088.7
1.0301199999999998e-6,41164.1
1.03194e-6,42280.8
1.03376e-6,43439.7
1.03558e-6,44641.1
1.0374e-6,45885.5
1.03921e-6,47172.700000000004
1.0410299999999998e-6,48502.6
1.04285e-6,49874.6
1.04467e-6,51287.799999999996
1.0464899999999998e-6,52741.0
1.0483e-6,54232.5
1.0501199999999998e-6,55759.99999999999
1.05255e-6,57848.2
1.05558e-6,60530.2
1.05921e-6,63828.3
1.06648e-6,70518.8
1.07e-6,73695.4
1.07254e-6,75927.7
1.07509e-6,78076.1
1.07678e-6,79449.8
1.07848e-6,80767.90000000001
1.08018e-6,82023.2
1.08187e-6,83208.59999999999
1.08369e-6,84393.0
1.0855099999999999e-6,85480.7
1.08733e-6,86464.0
1.08915e-6,87335.7
1.09096e-6,88089.3
1.0926599999999999e-6,88681.09999999999
1.0943e-6,89145.90000000001
1.09593e-6,89504.0
1.09757e-6,89753.1
1.09921e-6,89891.7
1.1003e-6,89922.29999999999
1.1016499999999999e-6,89891.2
1.1033299999999999e-6,89747.8
1.105e-6,89489.40000000001
1.1067199999999998e-6,89105.4
1.10854e-6,88572.79999999999
1.11036e-6,87914.1
1.1121700000000001e-6,87134.5
1.11399e-6,86240.1
1.1158099999999998e-6,85237.8
1.1176299999999999e-6,84134.9
1.11945e-6,82939.4
1.1206599999999999e-6,82095.2
1.12308e-6,80304.7
1.1254999999999999e-6,78395.90000000001
1.12848e-6,75920.4
1.1314599999999998e-6,73337.0
1.13543e-6,69788.5
1.1434e-6,62602.5
1.1464199999999999e-6,59943.600000000006
1.14944e-6,57355.0
1.1524499999999999e-6,54853.6
1.15547e-6,52452.4
1.1574899999999999e-6,50912.0
1.1595299999999998e-6,49401.700000000004
1.16157e-6,47945.0
1.16361e-6,46542.8
1.16565e-6,45195.5
1.1676899999999998e-6,43903.2
1.16973e-6,42665.4
1.17178e-6,41481.399999999994
1.17382e-6,40350.4
1.17589e-6,39256.3
1.17796e-6,38214.0
1.18003e-6,37222.0
1.1820999999999999e-6,36278.700000000004
1.1841699999999998e-6,35382.3
1.18624e-6,34531.200000000004
1.18831e-6,33723.6
1.19038e-6,32957.8
1.1924799999999999e-6,32221.899999999998
1.1945799999999998e-6,31525.4
1.19667e-6,30866.5
1.1987699999999999e-6,30243.600000000002
1.20192e-6,29373.0
1.2050700000000001e-6,28574.4
1.20824e-6,27839.800000000003
1.21143e-6,27162.600000000002
1.21462e-6,26545.7
1.21782e-6,25985.3
1.2210099999999999e-6,25477.9
1.2241999999999999e-6,25020.5
1.22744e-6,24604.8
1.23068e-6,24235.1
1.2339199999999999e-6,23909.1
1.23716e-6,23625.0
1.24039e-6,23381.2
1.24366e-6,23174.399999999998
1.24695e-6,23005.399999999998
1.2502299999999999e-6,22874.2
1.2535199999999999e-6,22780.100000000002
1.2567999999999998e-6,22722.4
1.26045e-6,22700.399999999998
1.26427e-6,22724.3
1.2676e-6,22784.0
1.2698299999999999e-6,22843.6
1.27428e-6,23009.7
1.27872e-6,23236.6
1.2829999999999998e-6,23509.600000000002
1.28727e-6,23832.6
1.29155e-6,24200.7
1.29811e-6,24837.2
1.31617e-6,26751.6
1.32236e-6,27331.8
1.3272799999999999e-6,27716.699999999997
1.3309599999999998e-6,27949.600000000002
1.33421e-6,28109.5
1.33824e-6,28245.0
1.34227e-6,28308.2
1.34393e-6,28313.199999999997
1.3472399999999998e-6,28287.100000000002
1.3513599999999998e-6,28191.4
1.35627e-6,27995.100000000002
1.36168e-6,27695.6
1.36758e-6,27300.0
1.3826099999999998e-6,26221.7
1.3874399999999999e-6,25922.7
1.3921099999999998e-6,25680.399999999998
1.3966199999999998e-6,25498.9
1.40112e-6,25375.600000000002
1.40562e-6,25315.4
1.40787e-6,25310.0
1.41279e-6,25357.6
1.4177e-6,25488.6
1.4226199999999999e-6,25705.2
1.4275299999999999e-6,26009.2
1.43245e-6,26402.800000000003
1.43736e-6,26888.800000000003
1.44227e-6,27470.9
1.4471899999999998e-6,28153.800000000003
1.4520999999999998e-6,28943.500000000004
1.45702e-6,29847.399999999998
1.4607e-6,30605.899999999998
1.46439e-6,31438.3
1.46886e-6,32555.5
1.4729000000000001e-6,33671.3
1.47693e-6,34899.7
1.48096e-6,36250.6
1.48421e-6,37434.6
1.48789e-6,38893.6
1.49158e-6,40483.9
1.4952700000000001e-6,42217.1
1.4989499999999999e-6,44106.1
1.5026399999999999e-6,46164.50000000001
1.5059599999999998e-6,48174.0
1.50928e-6,50343.600000000006
1.51259e-6,52685.1
1.51591e-6,55210.0
1.51923e-6,57930.0
1.52279e-6,61081.3
1.52648e-6,64604.799999999996
1.53017e-6,68407.90000000001
1.53385e-6,72498.7
1.53754e-6,76881.0
1.54123e-6,81552.2
1.5449099999999999e-6,86502.5
1.5485999999999999e-6,91712.7
1.5522899999999999e-6,97153.50000000001
1.5571999999999999e-6,104692.99999999999
1.56949e-6,124045.99999999999
1.57441e-6,131468.0
1.57932e-6,138349.0
1.58301e-6,143001.0
1.5867e-6,147099.0
1.59038e-6,150546.0
1.59407e-6,153254.0
1.59776e-6,155154.0
1.60034e-6,155974.0
1.60304e-6,156371.0
1.60439e-6,156389.0
1.6073699999999999e-6,156006.0
1.61006e-6,155164.0
1.61275e-6,153864.0
1.61644e-6,151373.0
1.6201199999999999e-6,148121.0
1.62406e-6,143904.0
1.6284799999999998e-6,138380.0
1.63291e-6,132202.0
1.6393e-6,122496.99999999999
1.6515899999999997e-6,102976.0
1.6565e-6,95393.9
1.6614199999999998e-6,88150.20000000001
1.66633e-6,81333.5
1.67002e-6,76534.6
1.67371e-6,72018.8
1.67739e-6,67790.3
1.6810799999999998e-6,63847.1
1.68477e-6,60182.399999999994
1.68845e-6,56785.7
1.69214e-6,53643.9
1.69583e-6,50742.399999999994
1.69951e-6,48065.5
1.7032e-6,45597.399999999994
1.7068899999999998e-6,43322.3
1.7105699999999998e-6,41224.99999999999
1.7142599999999998e-6,39290.799999999996
1.71795e-6,37506.2
1.72163e-6,35858.2
1.72532e-6,34335.1
1.73024e-6,32479.8
1.7351499999999998e-6,30804.100000000002
1.7400699999999999e-6,29287.3
1.7449799999999999e-6,27911.399999999998
1.7499e-6,26660.6
1.75482e-6,25520.9
1.7597299999999998e-6,24480.300000000003
1.76465e-6,23528.1
1.76956e-6,22655.0
1.7764399999999999e-6,21549.999999999996
1.78308e-6,20598.2
1.78972e-6,19743.2
1.79603e-6,19008.6
1.80234e-6,18341.4
1.8118099999999998e-6,17450.5
1.8213699999999999e-6,16665.399999999998
1.83097e-6,15974.1
1.84057e-6,15365.5
1.8503099999999997e-6,14820.199999999999
1.8600499999999999e-6,14336.9
1.8731199999999998e-6,13770.500000000002
1.88629e-6,13280.400000000001
1.8995499999999999e-6,12854.6
1.9129e-6,12483.599999999999
1.93312e-6,12012.7
1.95353e-6,11627.400000000001
1.97412e-6,11312.0
1.99501e-6,11053.4
2.0160999999999996e-6,10844.0
2.04454e-6,10628.9
2.0733899999999996e-6,10475.5
2.10264e-6,10376.0
2.1323e-6,10325.599999999999
2.14888e-6,10317.9
2.18087e-6,10342.3
2.21164e-6,10413.300000000001
2.24284e-6,10534.300000000001
2.27448e-6,10711.0
2.3065699999999997e-6,10952.2
2.3391099999999996e-6,11271.4
2.3638599999999997e-6,11573.800000000001
2.38885e-6,11941.900000000001
2.41406e-6,12391.6
2.43952e-6,12944.4
2.4567299999999997e-6,13387.0
2.4739399999999996e-6,13896.900000000001
2.4913899999999997e-6,14496.4
2.5088400000000003e-6,15196.300000000001
2.52211e-6,15809.7
2.5353799999999998e-6,16506.7
2.54872e-6,17307.0
2.56218e-6,18236.5
2.57564e-6,19314.100000000002
2.58468e-6,20137.0
2.59378e-6,21060.8
2.6028799999999995e-6,22095.600000000002
2.61198e-6,23260.0
2.6197799999999998e-6,24378.1
2.62953e-6,25959.3
2.63603e-6,27145.7
2.6425200000000002e-6,28454.7
2.6498e-6,30087.199999999997
2.65707e-6,31924.600000000002
2.66435e-6,34001.9
2.6716199999999997e-6,36361.7
2.67647e-6,38116.9
2.6813199999999998e-6,40038.1
2.6861700000000002e-6,42145.5
2.69102e-6,44462.0
2.69587e-6,47013.4
2.70072e-6,49828.299999999996
2.7055699999999996e-6,52938.9
2.71042e-6,56380.100000000006
2.7152699999999997e-6,60190.1
2.72012e-6,64409.1
2.7249699999999998e-6,69079.3
2.72982e-6,74242.7
2.73467e-6,79939.90000000001
2.73952e-6,86207.2
2.74437e-6,93073.8
2.74922e-6,100557.99999999999
2.75407e-6,108661.99999999999
2.7589199999999997e-6,117370.0
2.76583e-6,130736.99999999999
2.77274e-6,145023.0
2.79117e-6,184529.0
2.79747e-6,197081.0
