E(MeV),xs(mb)
1.0e-11,71357.7
1.03223e-11,70246.0
1.06549e-11,69152.5
1.0998399999999998e-11,68075.8
1.13527e-11,67016.8
1.1718599999999999e-11,65974.2
1.2096199999999998e-11,64948.49999999999
1.24861e-11,63938.9
1.2888399999999999e-11,62945.6
1.3303799999999998e-11,61967.9
1.37325e-11,61006.0
1.41751e-11,60059.2
1.4631799999999997e-11,59127.799999999996
1.51034e-11,58210.9
1.5590099999999998e-11,57309.0
1.6092599999999998e-11,56421.200000000004
1.66111e-11,55547.899999999994
1.71465e-11,54688.2
1.7699e-11,53842.600000000006
1.8269399999999998e-11,53010.200000000004
1.88581e-11,52191.5
1.94659e-11,51385.6
2.00931e-11,50592.8
2.0740699999999998e-11,49812.6
2.1408999999999998e-11,49045.1
2.2099099999999997e-11,48289.7
2.28111e-11,47546.600000000006
2.3546399999999998e-11,46815.3
2.4305099999999997e-11,46095.9
2.50884e-11,45388.0
2.5896799999999997e-11,44691.6
2.67315e-11,44006.299999999996
2.75928e-11,43332.2
2.8482199999999998e-11,42668.799999999996
2.93999e-11,42016.4
3.0347499999999995e-11,41374.3
3.13253e-11,40742.700000000004
3.2335e-11,40121.3
3.33769e-11,39510.0
3.44526e-11,38908.6
3.55627e-11,38317.0
3.67089e-11,37734.9
3.7891799999999997e-11,37162.5
3.9113e-11,36599.2
4.0373400000000003e-11,36045.3
4.1674599999999996e-11,35500.2
4.3017399999999996e-11,34964.200000000004
4.440389999999999e-11,34436.9
4.58347e-11,33918.3
4.7311899999999994e-11,33408.1
4.883639999999999e-11,32906.3
5.0410399999999995e-11,32412.800000000003
5.20348e-11,31927.4
5.37119e-11,31450.0
5.54426e-11,30980.500000000004
5.7229499999999995e-11,30518.7
5.907359999999999e-11,30064.600000000002
6.09775e-11,29618.000000000004
6.29424e-11,29178.8
6.497099999999999e-11,28746.9
6.70645e-11,28322.2
6.9226e-11,27904.6
7.145659999999999e-11,27494.0
7.37596e-11,27090.2
7.61364e-11,26693.2
7.85902e-11,26302.8
8.11227e-11,25919.0
8.37372e-11,25541.7
8.643549999999999e-11,25170.8
8.922119999999998e-11,24806.0
9.209619999999999e-11,24447.600000000002
9.506439999999999e-11,24095.100000000002
9.81277e-11,23748.7
1.01291e-10,23408.1
1.04554e-10,23073.399999999998
1.07924e-10,22744.300000000003
1.11638e-10,22399.6
1.1548000000000001e-10,22061.199999999997
1.19453e-10,21729.0
1.2356400000000002e-10,21402.899999999998
1.27816e-10,21082.9
1.32214e-10,20768.7
1.36764e-10,20460.4
1.4147e-10,20157.8
1.46338e-10,19860.8
1.5137400000000002e-10,19569.3
1.5658300000000002e-10,19283.399999999998
1.61971e-10,19002.8
1.67544e-10,18727.4
1.7331000000000002e-10,18457.3
1.79274e-10,18192.3
1.85443e-10,17932.3
1.91824e-10,17677.2
1.9842500000000002e-10,17427.0
2.0525300000000001e-10,17181.6
2.1231600000000001e-10,16940.9
2.19622e-10,16704.8
2.2717900000000003e-10,16473.3
2.34997e-10,16246.300000000001
2.43083e-10,16023.6
2.51448e-10,15805.3
2.60101e-10,15591.2
2.69051e-10,15381.3
2.7830900000000004e-10,15175.6
2.87886e-10,14973.8
2.9779300000000004e-10,14776.1
3.08691e-10,14570.300000000001
3.19991e-10,14368.7
3.31701e-10,14171.5
3.43843e-10,13978.4
3.56426e-10,13789.400000000001
3.69473e-10,13604.400000000001
3.8299500000000003e-10,13423.400000000001
3.97014e-10,13246.1
4.1154400000000004e-10,13072.8
4.2660799999999997e-10,12903.1
4.42221e-10,12737.0
4.5840800000000006e-10,12574.6
4.75185e-10,12415.6
4.92578e-10,12260.0
5.10605e-10,12107.9
5.29296e-10,11959.0
5.498300000000001e-10,11804.9
5.7116e-10,11654.3
5.933180000000001e-10,11507.199999999999
6.16336e-10,11363.5
6.40247e-10,11223.0
6.650850000000001e-10,11085.8
6.908870000000001e-10,10951.800000000001
7.1769e-10,10820.9
7.45533e-10,10693.0
7.74456e-10,10568.0
8.062010000000001e-10,10439.300000000001
8.392530000000001e-10,10313.6
8.73655e-10,10190.999999999998
9.094720000000001e-10,10071.4
9.46752e-10,9954.72
9.855660000000001e-10,9840.83
1.0259700000000001e-9,9729.720000000001
1.06803e-9,9621.28
1.11416e-9,9509.97
1.1622900000000001e-9,9401.490000000002
1.2125e-9,9295.75
1.26488e-9,9192.69
1.31952e-9,9092.230000000001
1.3765200000000001e-9,8994.300000000001
1.43901e-9,8894.130000000001
1.50436e-9,8796.59
1.57266e-9,8701.62
1.64407e-9,8609.130000000001
1.71872e-9,8519.07
1.7967600000000001e-9,8431.35
1.88232e-9,8341.900000000001
1.9719500000000004e-9,8254.9
2.0658500000000003e-9,8170.249999999999
2.16423e-9,8087.889999999999
2.26728e-9,8007.77
2.38027e-9,7926.31
2.4989e-9,7847.139999999999
2.62343e-9,7770.1900000000005
2.75418e-9,7695.389999999999
2.89755e-9,7619.58
3.0484000000000004e-9,7545.96
3.2070900000000003e-9,7474.490000000001
3.3740500000000004e-9,7405.08
3.5572e-9,7334.93
3.75031e-9,7266.87
3.95389e-9,7200.87
4.1685400000000006e-9,7136.84
4.404130000000001e-9,7072.28
4.65304e-9,7009.7300000000005
4.916010000000001e-9,6949.13
5.2048300000000005e-9,6888.18
5.510650000000001e-9,6829.19
5.8344e-9,6772.1
6.19027e-9,6714.83
6.567840000000001e-9,6659.469999999999
6.96844e-9,6605.95
7.40914e-9,6552.4
7.87768e-9,6500.69
8.3936e-9,6449.08
8.9433e-9,6399.3099999999995
9.52901e-9,6351.320000000001
1.01746e-8,6303.54
1.08639e-8,6257.53
1.1624399999999999e-8,6211.839999999999
1.24382e-8,6167.900000000001
1.33371e-8,6124.360000000001
1.4301e-8,6082.56
1.5367e-8,6041.26
1.65475e-8,6000.54
1.78185e-8,5961.57
1.92279e-8,5923.2699999999995
2.0748700000000003e-8,5886.7
2.2437299999999997e-8,5850.87
2.43146e-8,5815.839999999999
2.52522e-8,5799.959999999999
2.5299999999999998e-8,5799.17
2.74749e-8,5765.900000000001
2.9899900000000004e-8,5733.59
3.26077e-8,5702.320000000001
3.55608e-8,5672.889999999999
3.88635e-8,5644.58
4.25626e-8,5617.49
4.67127e-8,5591.71
5.1376e-8,5567.34
5.66244e-8,5544.51
6.25408e-8,5523.360000000001
6.92219e-8,5504.06
7.6779e-8,5486.82
8.53412e-8,5471.9
9.48582e-8,5459.81
1.05659e-7,5450.67
1.17442e-7,5445.179999999999
1.2860799999999998e-7,5443.58
1.42347e-7,5445.74
1.56557e-7,5452.27
1.71459e-7,5463.46
1.8619799999999998e-7,5478.79
2.00925e-7,5498.42
2.1499100000000002e-7,5521.38
2.28588e-7,5547.81
2.41507e-7,5577.17
2.53542e-7,5608.65
2.65055e-7,5642.96
2.7592e-7,5679.57
2.86019e-7,5717.74
2.9586199999999995e-7,5759.299999999999
3.04751e-7,5800.99
3.1324399999999997e-7,5844.97
3.21294e-7,5890.86
3.2885499999999996e-7,5938.13
3.35883e-7,5986.11
3.43061e-7,6039.6
3.49651e-7,6093.15
3.55616e-7,6145.6900000000005
3.61683e-7,6203.52
3.67077e-7,6259.03
3.7255e-7,6319.69
3.77307e-7,6376.31
3.8212499999999996e-7,6437.68
3.87003e-7,6504.34
3.9111799999999997e-7,6564.4
3.9527399999999997e-7,6628.9400000000005
3.9947599999999997e-7,6698.48
4.03721e-7,6773.4800000000005
4.0801299999999994e-7,6854.58
4.11479e-7,6924.25
4.14974e-7,6998.599999999999
4.18498e-7,7078.05
4.22053e-7,7163.05
4.25638e-7,7254.1
4.2834599999999994e-7,7326.679999999999
4.3107300000000004e-7,7403.3
4.3381499999999997e-7,7484.12
4.3657700000000003e-7,7569.56
4.39354e-7,7659.83
4.4215099999999995e-7,7755.4
4.4496299999999996e-7,7856.5199999999995
4.47796e-7,7963.74
4.50645e-7,8077.33
4.53514e-7,8197.93
4.56399e-7,8325.86
4.59304e-7,8461.830000000002
4.6125e-7,8557.140000000001
4.6320499999999994e-7,8656.4
4.65168e-7,8759.800000000001
4.6714e-7,8867.51
4.6911899999999993e-7,8979.720000000001
4.71108e-7,9096.63
4.7310399999999997e-7,9218.43
4.7510899999999994e-7,9345.3
4.77123e-7,9477.449999999999
4.79145e-7,9615.07
4.81175e-7,9758.330000000002
4.83215e-7,9907.42
4.852619999999999e-7,10062.5
4.87319e-7,10223.7
4.89384e-7,10391.2
4.91458e-7,10565.0
4.93541e-7,10745.3
4.95633e-7,10932.0
4.97733e-7,11125.199999999999
4.99843e-7,11324.8
5.01961e-7,11530.7
5.04088e-7,11742.6
5.07295e-7,12071.199999999999
5.105239999999999e-7,12411.7
5.137719999999999e-7,12761.800000000001
5.23644e-7,13844.6
5.269749999999999e-7,14203.699999999999
5.29209e-7,14438.7
5.31452e-7,14668.300000000001
5.33704e-7,14890.6
5.359659999999999e-7,15103.9
5.376689999999999e-7,15256.9
5.393779999999999e-7,15403.0
5.41091e-7,15541.199999999999
5.42809e-7,15670.900000000001
5.445339999999999e-7,15791.4
5.46264e-7,15901.8
5.47999e-7,16001.2
5.49739e-7,16089.199999999999
5.51487e-7,16165.0
5.53239e-7,16228.1
5.54996e-7,16277.8
5.56758e-7,16313.800000000001
5.58528e-7,16335.599999999999
5.602789999999999e-7,16343.0
5.6144e-7,16340.1
5.626969999999999e-7,16329.9
5.63895e-7,16313.4
5.656869999999999e-7,16276.4
5.67485e-7,16224.7
5.69287e-7,16158.5
5.71095e-7,16078.1
5.7291e-7,15983.8
5.7473e-7,15876.1
5.76556e-7,15755.6
5.78387e-7,15622.8
5.802249999999999e-7,15478.400000000001
5.82068e-7,15323.199999999999
5.83917e-7,15158.0
5.85771e-7,14983.599999999999
5.87633e-7,14800.800000000001
5.894999999999999e-7,14610.6
5.91999e-7,14347.099999999999
5.94508e-7,14074.1
5.98289e-7,13651.7
6.07212e-7,12639.1
6.11075e-7,12208.2
6.13665e-7,11925.5
6.162659999999999e-7,11647.8
6.188769999999999e-7,11376.1
6.215e-7,11111.3
6.234759999999999e-7,10917.6
6.25457e-7,10728.4
6.274429999999999e-7,10543.9
6.29435e-7,10364.3
6.314359999999999e-7,10189.5
6.334419999999999e-7,10019.7
6.35454e-7,9855.029999999999
6.37472e-7,9695.48
6.39498e-7,9540.83
6.4153e-7,9391.25
6.435679999999999e-7,9246.710000000001
6.45611e-7,9107.13
6.47663e-7,8972.23
6.497209999999999e-7,8842.119999999999
6.51785e-7,8716.69
6.53854e-7,8595.82
6.55933e-7,8479.23
6.580169999999999e-7,8366.97
6.601069999999999e-7,8258.91
6.62203e-7,8154.909999999999
6.64308e-7,8054.700000000001
6.66418e-7,7958.3
6.685349999999999e-7,7865.57
6.70658e-7,7776.379999999999
6.727890000000001e-7,7690.48
6.74927e-7,7607.87
6.77787e-7,7502.61
6.806600000000001e-7,7402.64
6.83545e-7,7307.7
6.86441e-7,7217.52
6.893509999999999e-7,7131.85
6.92272e-7,7050.45
6.95206e-7,6973.099999999999
6.98152e-7,6899.58
7.01111e-7,6829.679999999999
7.04082e-7,6763.219999999999
7.07066e-7,6700.0
7.100629999999999e-7,6639.85
7.13072e-7,6582.620000000001
7.16094e-7,6528.139999999999
7.19129e-7,6476.27
7.221759999999999e-7,6426.88
7.26771e-7,6357.17
7.31397e-7,6292.28
7.360499999999999e-7,6231.94
7.407359999999999e-7,6175.72
7.454479999999999e-7,6123.400000000001
7.501929999999999e-7,6074.61
7.54966e-7,6029.19
7.59772e-7,5986.81
7.64605e-7,5947.35
7.69472e-7,5910.53
7.76008e-7,5865.33
7.825999999999999e-7,5824.19
7.89247e-7,5786.8
7.959509999999999e-7,5752.849999999999
8.02712e-7,5722.08
8.095299999999999e-7,5694.27
8.181319999999999e-7,5663.35
8.268299999999999e-7,5636.37
8.356159999999999e-7,5613.0599999999995
8.44499e-7,5593.17
8.53473e-7,5576.52
8.625469999999999e-7,5562.929999999999
8.735599999999999e-7,5550.53
8.847129999999999e-7,5542.25
8.960089999999999e-7,5538.03
9.020720000000001e-7,5537.45
9.135899999999999e-7,5539.51
9.25254e-7,5545.84
9.35091e-7,5554.53
9.45027e-7,5566.5199999999995
9.550739999999999e-7,5582.08
9.652229999999999e-7,5601.49
9.75484e-7,5625.17
9.8377e-7,5647.52
9.92126e-7,5673.21
1.00055e-6,5702.62
1.00692e-6,5727.36
1.0140199999999999e-6,5757.7699999999995
1.02112e-6,5791.38
1.02833e-6,5829.049999999999
1.03553e-6,5870.71
1.04284e-6,5917.44
1.05014e-6,5969.21
1.05755e-6,6027.45
1.06496e-6,6092.17
1.07059e-6,6146.25
1.0762199999999999e-6,6204.96
1.0818799999999998e-6,6269.099999999999
1.0875999999999998e-6,6339.599999999999
1.09331e-6,6416.509999999999
1.09908e-6,6501.34
1.10487e-6,6594.66
1.11067e-6,6697.009999999999
1.11654e-6,6811.07
1.12242e-6,6936.67
1.1263399999999997e-6,7027.47
1.1303099999999999e-6,7125.84
1.13428e-6,7231.03
1.13826e-6,7343.530000000001
1.14223e-6,7463.9
1.14626e-6,7594.57
1.15029e-6,7734.51
1.15431e-6,7884.34
1.1583399999999998e-6,8044.679999999999
1.16243e-6,8218.640000000001
1.1665099999999998e-6,8404.619999999999
1.1706e-6,8603.17
1.1746899999999999e-6,8814.72
1.17883e-6,9042.880000000001
1.18297e-6,9284.9
1.18711e-6,9540.710000000001
1.1912599999999999e-6,9809.939999999999
1.19546e-6,10096.0
1.2017599999999998e-6,10547.0
1.2080599999999999e-6,11018.9
1.22085e-6,12002.1
1.22713e-6,12472.4
1.23318e-6,12898.6
1.23722e-6,13160.400000000001
1.24125e-6,13398.9
1.24454e-6,13573.4
1.24784e-6,13727.3
1.25113e-6,13858.5
1.2544200000000001e-6,13965.5
1.25742e-6,14040.3
1.26042e-6,14092.800000000001
1.26341e-6,14122.4
1.26641e-6,14128.8
1.26921e-6,14113.6
1.27286e-6,14063.300000000001
1.27616e-6,13989.1
1.2794499999999999e-6,13888.6
1.2827399999999999e-6,13763.300000000001
1.28604e-6,13614.599999999999
1.28933e-6,13444.7
1.29427e-6,13154.5
1.2992099999999998e-6,12829.0
1.3037899999999998e-6,12502.7
1.30837e-6,12159.4
1.32683e-6,10725.199999999999
1.3338e-6,10205.3
1.34084e-6,9710.380000000001
1.34555e-6,9398.960000000001
1.35026e-6,9104.939999999999
1.35498e-6,8828.82
1.35976e-6,8567.130000000001
1.36454e-6,8323.6
1.36931e-6,8097.619999999999
1.37409e-6,7888.410000000001
1.37894e-6,7692.43
1.38379e-6,7511.7
1.38863e-6,7345.16
1.3959399999999999e-6,7118.629999999999
1.40331e-6,6916.629999999999
1.4106799999999998e-6,6738.08
1.41812e-6,6578.57
1.4256e-6,6436.54
1.4330799999999998e-6,6310.37
1.4431799999999999e-6,6161.32
1.4532899999999999e-6,6033.13
1.4635499999999997e-6,5920.84
1.4738e-6,5823.41
1.48939e-6,5698.400000000001
1.50513e-6,5594.8099999999995
1.5156799999999998e-6,5535.57
1.53706e-6,5435.120000000001
1.55874e-6,5354.15
1.58074e-6,5288.0599999999995
1.61434e-6,5209.67
1.64859e-6,5149.73
1.6954299999999999e-6,5089.5
1.76821e-6,5026.83
1.87012e-6,4973.849999999999
2.04847e-6,4925.71
2.37303e-6,4889.79
3.18474e-6,4865.58
7.861789999999999e-6,4854.5199999999995
1.78419e-5,4853.28
1.85335e-5,4854.24
2.1791900000000004e-5,4853.13
2.37682e-5,4859.12
2.3948200000000002e-5,4866.64
2.4444900000000004e-5,4853.74
2.49659e-5,4853.39
2.7384500000000002e-5,4859.17
2.7618100000000002e-5,4872.49
2.7745000000000003e-5,4908.29
2.79247e-5,5000.2300000000005
2.7968000000000004e-5,5006.65
2.80516e-5,4985.400000000001
2.82074e-5,4909.25
2.8336700000000003e-5,4885.5199999999995
2.8371400000000004e-5,4884.47
2.8553400000000003e-5,4900.21
2.8660000000000003e-5,4937.59
2.87199e-5,4985.13
2.8767800000000003e-5,5050.73
2.88103e-5,5139.15
2.8855200000000005e-5,5269.860000000001
2.8901900000000002e-5,5444.14
2.8985e-5,5781.0
2.9024500000000003e-5,5899.49
2.9052200000000003e-5,5947.2
2.9075400000000003e-5,5960.14
2.91009e-5,5944.56
2.9132600000000003e-5,5884.58
2.91721e-5,5759.45
2.9277500000000002e-5,5339.86
2.9317000000000004e-5,5210.5
2.93499e-5,5125.21
2.9388100000000004e-5,5050.82
2.9443400000000003e-5,4980.57
2.9509300000000002e-5,4934.490000000001
2.9575200000000004e-5,4909.92
2.9706900000000002e-5,4886.53
3.0161300000000002e-5,4864.530000000001
3.34824e-5,4854.02
3.5037500000000005e-5,4853.63
3.5655400000000004e-5,4855.349999999999
3.7580400000000004e-5,4853.259999999999
3.810430000000001e-5,4853.53
3.86413e-5,4853.21
3.92696e-5,4854.26
4.1821500000000006e-5,4852.98
4.25231e-5,4854.09
4.6067700000000006e-5,4852.8099999999995
4.93406e-5,4859.42
4.9538200000000006e-5,4876.14
4.9658000000000005e-5,4913.66
4.9775400000000005e-5,4988.360000000001
4.99071e-5,5081.7699999999995
4.99847e-5,5101.81
5.005810000000001e-5,5082.860000000001
5.027490000000001e-5,4934.71
5.03933e-5,4888.27
5.0594100000000004e-5,4865.47
5.14544e-5,4855.5
5.20305e-5,4864.49
5.2217500000000006e-5,4896.87
5.2452e-5,4973.639999999999
5.250530000000001e-5,4978.589999999999
5.2618000000000003e-5,4959.72
5.283400000000001e-5,4888.07
5.301650000000001e-5,4863.780000000001
5.32379e-5,4859.15
5.34507e-5,4859.89
5.758580000000001e-5,4852.79
6.22292e-5,4852.490000000001
6.3012e-5,4853.13
6.900680000000001e-5,4852.11
6.97863e-5,4852.7699999999995
7.178600000000001e-5,4851.96
7.35747e-5,4856.849999999999
7.403950000000001e-5,4886.02
7.457580000000001e-5,4855.64
7.505660000000001e-5,4853.139999999999
7.62714e-5,4860.38
7.651390000000001e-5,4873.68
7.66397e-5,4897.929999999999
7.67296e-5,4938.49
7.678950000000001e-5,4985.089999999999
7.684940000000001e-5,5053.13
7.69212e-5,5166.45
7.709850000000001e-5,5524.35
7.715840000000001e-5,5615.0599999999995
7.720990000000001e-5,5656.44
7.723630000000001e-5,5661.9400000000005
7.728060000000001e-5,5646.4400000000005
7.732850000000001e-5,5597.26
7.74004e-5,5476.13
7.75367e-5,5201.29
7.76041e-5,5090.3099999999995
7.766390000000001e-5,5016.19
7.775380000000001e-5,4944.58
7.784360000000001e-5,4906.71
7.80293e-5,4877.13
7.861030000000002e-5,4860.26
8.221300000000001e-5,4852.99
8.287850000000001e-5,4855.79
8.445130000000002e-5,4852.38
8.576790000000002e-5,4857.51
8.627280000000002e-5,4890.87
8.687440000000001e-5,4856.639999999999
8.715140000000001e-5,4855.29
8.822450000000001e-5,4870.04
8.844530000000002e-5,4891.54
8.85441e-5,4917.25
8.862650000000001e-5,4959.349999999999
8.86924e-5,5017.41
8.87582e-5,5108.43
8.880770000000001e-5,5204.71
8.88571e-5,5328.45
8.89203e-5,5526.65
8.90073e-5,5851.41
8.908640000000001e-5,6146.19
8.913910000000001e-5,6305.4800000000005
8.91786e-5,6390.12
8.921810000000002e-5,6437.280000000001
8.92429e-5,6445.9
8.928470000000002e-5,6423.17
8.93235e-5,6362.03
8.936310000000001e-5,6265.59
8.941580000000001e-5,6096.82
8.955360000000002e-5,5587.21
8.961190000000002e-5,5400.070000000001
8.966880000000001e-5,5252.04
8.97315e-5,5129.570000000001
8.97898e-5,5049.34
8.98627e-5,4983.86
8.996180000000002e-5,4934.62
9.01353e-5,4898.58
9.050700000000002e-5,4875.14
9.18774e-5,4859.13
9.38124e-5,4855.85
9.45431e-5,4860.31
9.47706e-5,4879.51
9.497430000000001e-5,4933.08
9.51803e-5,4995.9
9.52557e-5,5002.71
9.53863e-5,4984.530000000001
9.56889e-5,4896.7
9.594770000000002e-5,4867.37
9.68164e-5,4855.29
9.738550000000001e-5,4854.74
9.74547e-5,4854.75
0.000100992,4853.19
0.000102449,4859.429999999999
0.00010265400000000001,4876.83
0.000103033,4951.150000000001
0.000103102,4955.16
0.00010327,4936.84
0.000103536,4881.66
0.00010373399999999999,4862.41
0.00010513600000000002,4853.12
0.000105322,4853.030000000001
0.000105852,4853.22
0.000108944,4851.96
0.000109496,4852.03
0.00011036,4851.8
0.00011245600000000001,4860.04
0.000112773,4876.99
0.00011290700000000001,4905.3
0.000113004,4947.94
0.00011309400000000001,5012.349999999999
0.000113195,5114.73
0.00011337800000000001,5324.43
0.00011345700000000001,5383.06
0.00011353,5400.45
0.0001136,5380.61
0.00011367900000000001,5320.47
0.00011389600000000001,5077.92
0.00011399500000000001,4991.139999999999
0.00011409400000000001,4933.74
0.00011421900000000001,4894.34
0.00011445900000000001,4868.8099999999995
0.00011549700000000001,4855.610000000001
0.00011622900000000001,4854.48
0.000117515,4862.429999999999
0.00011789000000000001,4884.08
0.00011802,4911.88
0.000118103,4949.099999999999
0.000118186,5016.21
0.000118246,5093.4
0.000118306,5203.54
0.000118351,5312.03
0.000118396,5444.83
0.000118454,5653.71
0.00011851100000000002,5891.19
0.000118651,6520.1
0.00011869900000000001,6704.2
0.000118747,6847.089999999999
0.00011879,6929.91
0.000118834,6963.04
0.00011887200000000001,6947.84
0.000118915,6884.16
0.000118963,6759.57
0.000119011,6590.33
0.00011909000000000001,6253.0599999999995
0.000119169,5902.37
0.000119229,5661.2
0.000119289,5456.83
0.000119349,5294.17
0.00011940900000000002,5171.509999999999
0.00011947200000000001,5079.42
0.000119535,5016.549999999999
0.00011960700000000001,4969.59
0.00011969900000000001,4934.68
0.000119822,4910.26
0.000120098,4887.27
0.00012094400000000001,4871.7699999999995
0.00012225900000000002,4860.97
0.00012271300000000002,4862.669999999999
0.000129057,4854.099999999999
0.00013079400000000002,4859.61
0.00013107800000000002,4873.47
0.000131252,4909.849999999999
0.000131369,4969.55
0.000131459,5047.0199999999995
0.000131549,5155.69
0.000131759,5470.150000000001
0.000131831,5552.139999999999
0.00013189700000000001,5594.7
0.000131941,5602.56
0.00013200900000000002,5580.56
0.000132081,5516.83
0.000132179,5384.71
0.000132315,5182.53
0.000132405,5073.0599999999995
0.00013249500000000002,4993.389999999999
0.000132585,4941.37
0.000132675,4910.12
0.000132881,4880.18
0.000133349,4868.1
0.000133767,4876.55
0.000133902,4893.13
0.000134036,4933.08
0.000134134,4989.12
0.00013423300000000001,5074.54
0.000134379,5245.19
0.000134492,5378.18
0.000134571,5444.83
0.000134652,5473.530000000001
0.000134656,5473.740000000001
0.000134723,5460.09
0.000134802,5406.450000000001
0.000134921,5276.49
0.00013508000000000001,5091.79
0.00013517500000000002,5008.07
0.000135295,4939.75
0.000135405,4905.33
0.000135587,4880.6900000000005
0.000136171,4864.57
0.000139686,4856.47
0.000140255,4856.9800000000005
0.000142668,4855.29
