E(MeV),xs(mb)
1.0e-11,2.1259800000000004e7
1.03223e-11,2.09252e7
1.06549e-11,2.05961e7
1.0998399999999998e-11,2.0272e7
1.13527e-11,1.99531e7
1.1718599999999999e-11,1.96391e7
1.2096199999999998e-11,1.93302e7
1.24861e-11,1.9026e7
1.2888399999999999e-11,1.87267e7
1.3303799999999998e-11,1.8432e7
1.37325e-11,1.81421e7
1.41751e-11,1.78566e7
1.4631799999999997e-11,1.75757e7
1.51034e-11,1.72991e7
1.5590099999999998e-11,1.7027e7
1.6092599999999998e-11,1.6759e7
1.66111e-11,1.64954e7
1.71465e-11,1.62358e7
1.7699e-11,1.5980399999999998e7
1.8269399999999998e-11,1.5729e7
1.88581e-11,1.54816e7
1.94659e-11,1.52379e7
2.00931e-11,1.49982e7
2.0740699999999998e-11,1.47622e7
2.1408999999999998e-11,1.453e7
2.2099099999999997e-11,1.43014e7
2.28111e-11,1.40764e7
2.3546399999999998e-11,1.3854900000000002e7
2.4305099999999997e-11,1.3637e7
2.50884e-11,1.3422400000000002e7
2.5896799999999997e-11,1.32112e7
2.67315e-11,1.30034e7
2.75928e-11,1.2798799999999998e7
2.8482199999999998e-11,1.25974e7
2.93999e-11,1.23992e7
3.0347499999999995e-11,1.22042e7
3.13253e-11,1.20122e7
3.2335e-11,1.18232e7
3.33769e-11,1.16372e7
3.44526e-11,1.14541e7
3.55627e-11,1.1273899999999998e7
3.67089e-11,1.10965e7
3.7891799999999997e-11,1.09219e7
3.9113e-11,1.07501e7
4.0373400000000003e-11,1.0581e7
4.1674599999999996e-11,1.04145e7
4.3017399999999996e-11,1.02507e7
4.440389999999999e-11,1.00894e7
4.58347e-11,9.93068e6
4.7311899999999994e-11,9.77444e6
4.883639999999999e-11,9.62068e6
5.0410399999999995e-11,9.46931e6
5.20348e-11,9.32035e6
5.37119e-11,9.17371e6
5.54426e-11,9.0294e6
5.7229499999999995e-11,8.88734e6
5.907359999999999e-11,8.74754e6
6.09775e-11,8.60991e6
6.29424e-11,8.47448e6
6.497099999999999e-11,8.341150000000001e6
6.70645e-11,8.20994e6
6.9226e-11,8.080769999999999e6
7.145659999999999e-11,7.95366e6
7.37596e-11,7.82853e6
7.61364e-11,7.70539e6
7.85902e-11,7.58416e6
8.11227e-11,7.46486e6
8.37372e-11,7.34742e6
8.643549999999999e-11,7.23185e6
8.922119999999998e-11,7.11808e6
9.209619999999999e-11,7.00612e6
9.506439999999999e-11,6.8959e6
9.81277e-11,6.78743e6
1.01291e-10,6.68064e6
1.04554e-10,6.57557e6
1.07924e-10,6.47211e6
1.11402e-10,6.37033e6
1.1499200000000001e-10,6.2701e6
1.1869700000000001e-10,6.17149e6
1.22523e-10,6.0744e6
1.26471e-10,5.97887e6
1.30547e-10,5.88481e6
1.34754e-10,5.79226e6
1.3909700000000002e-10,5.70114e6
1.43579e-10,5.61148e6
1.48207e-10,5.5232e6
1.52982e-10,5.43634e6
1.57913e-10,5.35082e6
1.6300100000000001e-10,5.26668e6
1.68254e-10,5.18383e6
1.73676e-10,5.10231e6
1.79274e-10,5.02205e6
1.8505000000000002e-10,4.94308e6
1.91014e-10,4.86532e6
1.97169e-10,4.78881e6
2.03524e-10,4.71349e6
2.1008200000000003e-10,4.63937e6
2.16853e-10,4.5664e6
2.2384e-10,4.49459e6
2.31055e-10,4.4239e6
2.385e-10,4.35434e6
2.46187e-10,4.28586e6
2.5412e-10,4.21847e6
2.6231e-10,4.15212e6
2.70762e-10,4.0868399999999995e6
2.7948900000000003e-10,4.02257e6
2.88494e-10,3.95932e6
2.9779300000000004e-10,3.89706e6
3.07388e-10,3.83579e6
3.1729500000000004e-10,3.77547e6
3.27519e-10,3.71611e6
3.38075e-10,3.65768e6
3.4896900000000003e-10,3.60018e6
3.6021600000000004e-10,3.54357e6
3.7182300000000004e-10,3.48786e6
3.83807e-10,3.43302e6
3.96174e-10,3.37906e6
4.08943e-10,3.32593e6
4.2212e-10,3.27365e6
4.3572499999999996e-10,3.22218e6
4.4976500000000005e-10,3.17154e6
4.6426100000000007e-10,3.12168e6
4.79221e-10,3.07261e6
4.94666e-10,3.02431e6
5.10605e-10,2.97678e6
5.270620000000001e-10,2.92999e6
5.440450000000001e-10,2.88395e6
5.6158e-10,2.83862e6
5.796750000000001e-10,2.79401e6
5.98358e-10,2.7501e6
6.176389999999999e-10,2.70689e6
6.37545e-10,2.66435e6
6.58089e-10,2.62248e6
6.79298e-10,2.58127e6
7.01188e-10,2.54072e6
7.237860000000001e-10,2.5008e6
7.47109e-10,2.46151e6
7.71188e-10,2.42284e6
7.960380000000001e-10,2.38478e6
8.21693e-10,2.34732e6
8.48171e-10,2.31045e6
8.75507e-10,2.27416e6
9.037190000000002e-10,2.23844e6
9.32845e-10,2.20328e6
9.62904e-10,2.16868e6
9.93937e-10,2.13463e6
1.0259700000000001e-9,2.10111e6
1.05903e-9,2.06812e6
1.09316e-9,2.03565e6
1.12839e-9,2.0036900000000002e6
1.16475e-9,1.97223e6
1.2022900000000002e-9,1.94127e6
1.2410300000000002e-9,1.9108e6
1.28103e-9,1.88081e6
1.3223100000000002e-9,1.85129e6
1.36492e-9,1.82224e6
1.4089000000000002e-9,1.79365e6
1.4543100000000001e-9,1.7655e6
1.5011699999999999e-9,1.73781e6
1.5495600000000002e-9,1.71054e6
1.5994900000000002e-9,1.68371e6
1.6510400000000001e-9,1.6573e6
1.7042400000000001e-9,1.63131e6
1.75917e-9,1.60573e6
1.81585e-9,1.58055e6
1.87438e-9,1.55577e6
1.9347700000000003e-9,1.53138e6
1.99713e-9,1.50737e6
2.06148e-9,1.48375e6
2.1279200000000002e-9,1.4605e6
2.19649e-9,1.43761e6
2.26728e-9,1.41509e6
2.3403400000000002e-9,1.39292e6
2.4157700000000002e-9,1.3711e6
2.49362e-9,1.34963e6
2.5739800000000002e-9,1.32849e6
2.65692e-9,1.30769e6
2.7425500000000002e-9,1.28722e6
2.8309300000000003e-9,1.26708e6
2.92217e-9,1.24725e6
3.01633e-9,1.22773e6
3.11354e-9,1.20852e6
3.21387e-9,1.18962e6
3.3174500000000004e-9,1.17102e6
3.42435e-9,1.15271e6
3.53471e-9,1.13469e6
3.6486100000000003e-9,1.11695e6
3.7662000000000005e-9,1.0995e6
3.88757e-9,1.08232e6
4.01286e-9,1.06542e6
4.14217e-9,1.04878e6
4.2756600000000005e-9,1.0324e6
4.41344e-9,1.0162899999999999e6
4.55568e-9,1.0004299999999999e6
4.7024800000000005e-9,984825.0
4.85404e-9,969464.0
5.01045e-9,954350.0
5.17193e-9,939472.0
5.338590000000001e-9,924834.0000000001
5.510650000000001e-9,910426.0
5.688220000000001e-9,896247.9999999999
5.871540000000001e-9,882293.9999999999
6.06075e-9,868563.9999999999
6.256080000000001e-9,855050.0
6.4576700000000005e-9,841752.0
6.665790000000001e-9,828665.0
6.8805900000000005e-9,815787.0000000001
7.1023400000000005e-9,803112.0
7.33121e-9,790642.0
7.56748e-9,778368.0
7.81133e-9,766291.0
8.06308e-9,754405.0
8.32291e-9,742711.0
8.59114e-9,731202.0
8.86798e-9,719878.0
9.15378e-9,708734.0
9.44875e-9,697769.0
9.753270000000001e-9,686979.0
1.0067600000000001e-8,676363.0
1.0392e-8,665915.0
1.07269e-8,655637.0
1.10726e-8,645522.0
1.1429400000000001e-8,635571.0
1.17978e-8,625778.0
1.21779e-8,616144.0
1.25704e-8,606663.0
1.29755e-8,597336.0
1.33937e-8,588158.0
1.3825300000000001e-8,579129.0
1.42708e-8,570244.0
1.4730700000000002e-8,561503.0
1.52054e-8,552902.0
1.56954e-8,544442.0
1.62012e-8,536116.0
1.67233e-8,527927.0
1.72623e-8,519869.99999999994
1.78185e-8,511944.99999999994
1.83928e-8,504147.00000000006
1.89855e-8,496476.99999999994
1.9597400000000002e-8,488931.99999999994
2.02289e-8,481511.0
2.0880800000000003e-8,474210.0
2.15537e-8,467030.0
2.2248299999999998e-8,459966.0
2.2965200000000002e-8,453020.0
2.37054e-8,446186.0
2.4469300000000002e-8,439466.0
2.52522e-8,432902.0
2.5299999999999998e-8,432512.0
2.61154e-8,426016.0
2.69569e-8,419628.0
2.7825700000000004e-8,413346.00000000006
2.8722400000000002e-8,407168.0
2.9648e-8,401091.0
3.06034e-8,395116.0
3.1589700000000004e-8,389240.0
3.26077e-8,383463.0
3.36586e-8,377781.0
3.47432e-8,372196.0
3.58629e-8,366703.0
3.70185e-8,361305.0
3.8211599999999997e-8,355996.0
3.94429e-8,350779.0
4.07141e-8,345650.0
4.20261e-8,340609.0
4.33805e-8,335653.0
4.4778399999999994e-8,330783.0
4.622150000000001e-8,325996.0
4.7710999999999996e-8,321292.0
4.92486e-8,316670.0
5.0835600000000004e-8,312129.0
5.2474e-8,307666.0
5.41649e-8,303283.0
5.59105e-8,298977.0
5.77122e-8,294748.0
5.95722e-8,290593.0
6.16221e-8,286244.0
6.37426e-8,281977.0
6.5936e-8,277791.0
6.820500000000001e-8,273686.0
7.055200000000001e-8,269661.0
7.29798e-8,265714.0
7.54911e-8,261845.00000000003
7.808880000000001e-8,258053.0
8.077600000000001e-8,254337.0
8.35556e-8,250696.0
8.643079999999999e-8,247128.0
8.9405e-8,243634.0
9.24815e-8,240212.0
9.566390000000001e-8,236862.0
9.89558e-8,233582.0
1.0236099999999999e-7,230372.00000000003
1.0588299999999998e-7,227232.0
1.0952699999999999e-7,224161.0
1.13296e-7,221159.00000000003
1.17195e-7,218223.0
1.2122699999999998e-7,215354.0
1.25399e-7,212550.00000000003
1.29714e-7,209810.0
1.34178e-7,207134.99999999997
1.38795e-7,204524.99999999997
1.43571e-7,201979.0
1.48511e-7,199496.0
1.53622e-7,197077.0
1.58908e-7,194720.0
1.6437600000000002e-7,192427.0
1.7003299999999997e-7,190196.0
1.75884e-7,188028.0
1.81936e-7,185922.0
1.8819699999999997e-7,183879.0
1.9508499999999998e-7,181776.0
2.02225e-7,179744.0
2.09626e-7,177782.0
2.17299e-7,175893.0
2.2525199999999998e-7,174076.0
2.3349700000000002e-7,172330.0
2.42043e-7,170654.0
2.50902e-7,169051.0
2.6008499999999996e-7,167522.0
2.69605e-7,166067.0
2.7947199999999995e-7,164688.0
2.89701e-7,163386.0
3.0030399999999996e-7,162163.0
3.11296e-7,161020.0
3.22689e-7,159959.0
3.3450099999999996e-7,158982.0
3.4674299999999997e-7,158091.0
3.5943499999999996e-7,157289.0
3.72589e-7,156579.0
3.86227e-7,155964.0
4.00363e-7,155447.0
4.15017e-7,155034.0
4.30206e-7,154727.0
4.4595299999999997e-7,154533.0
4.6227400000000003e-7,154457.0
4.63825e-7,154456.0
4.797850000000001e-7,154509.0
4.96295e-7,154679.0
5.133729999999999e-7,154972.0
5.31039e-7,155395.0
5.493129999999999e-7,155957.0
5.670159999999999e-7,156619.0
5.852879999999999e-7,157419.0
6.04151e-7,158367.0
6.223029999999999e-7,159396.0
6.410009999999999e-7,160572.0
6.602599999999999e-7,161908.0
6.7866e-7,163301.0
6.97576e-7,164852.0
7.17016e-7,166572.0
7.35442e-7,168323.0
7.54342e-7,170242.0
7.73728e-7,172342.0
7.91938e-7,174439.0
8.10572e-7,176711.0
8.29649e-7,179174.0
8.47378e-7,181591.0
8.654870000000001e-7,184190.0
8.839829999999999e-7,186985.0
9.00965e-7,189682.0
9.18277e-7,192563.0
9.35918e-7,195641.0
9.53902e-7,198933.0
9.70175e-7,202052.0
9.86727e-7,205364.0
1.00356e-6,208885.0
1.01987e-6,212449.00000000003
1.03426e-6,215723.00000000003
1.04885e-6,219172.0
1.06365e-6,222807.99999999997
1.07865e-6,226643.99999999997
1.0938699999999998e-6,230693.0
1.1093e-6,234968.99999999997
1.13289e-6,241857.0
1.1569199999999998e-6,249341.0
1.18152e-6,257529.0
1.2065799999999999e-6,266459.0
1.2322399999999999e-6,276267.0
1.25837e-6,287020.0
1.27613e-6,294798.0
1.29413e-6,303108.0
1.3123899999999999e-6,311999.0
1.3308999999999998e-6,321526.0
1.3496799999999998e-6,331751.0
1.3687199999999998e-6,342744.0
1.38803e-6,354584.0
1.40761e-6,367360.0
1.42747e-6,381173.0
1.44761e-6,396137.0
1.46804e-6,412392.0
1.48875e-6,430098.0
1.5097499999999998e-6,449436.00000000006
1.53105e-6,470612.00000000006
1.55265e-6,493865.0
1.5745599999999999e-6,519484.0
1.59677e-6,547809.0
1.6193e-6,579246.0
1.6364299999999999e-6,605200.0
1.65373e-6,633388.0
1.67118e-6,664081.0
1.6888099999999999e-6,697588.0
1.70668e-6,734453.0
1.7247099999999998e-6,774956.0
1.74292e-6,819602.0000000001
1.7613e-6,868987.0000000001
1.7799299999999999e-6,924093.0
1.79875e-6,985562.0
1.81773e-6,1.05443e6
1.83051e-6,1.10515e6
1.8433799999999999e-6,1.16022e6
1.85634e-6,1.22015e6
1.86939e-6,1.28556e6
1.88253e-6,1.35713e6
1.8957599999999999e-6,1.43567e6
1.90908e-6,1.52214e6
1.9225e-6,1.61765e6
1.93602e-6,1.72351e6
1.94963e-6,1.84133e6
1.96333e-6,1.97302e6
1.97366e-6,2.0821299999999998e6
1.98408e-6,2.20199e6
1.99451e-6,2.33279e6
2.00503e-6,2.47732e6
2.0156e-6,2.6368e6
2.0261699999999998e-6,2.81251e6
2.03689e-6,3.00961e6
2.04761e-6,3.22852e6
2.05838e-6,3.47378e6
2.0692499999999997e-6,3.75117e6
2.0764999999999995e-6,3.95516e6
2.08374e-6,4.1763899999999995e6
2.0925099999999997e-6,4.46974e6
2.1012699999999997e-6,4.79522e6
2.1103e-6,5.16924e6
2.11667e-6,5.46018e6
2.12304e-6,5.77626e6
2.12942e-6,6.12034e6
2.13579e-6,6.49572e6
2.14216e-6,6.90612e6
2.14854e-6,7.35584e6
2.15491e-6,7.84974e6
2.16128e-6,8.3934e6
2.16766e-6,8.99319e6
2.17403e-6,9.65635e6
2.1804e-6,1.03911e7
2.1867800000000003e-6,1.12066e7
2.1915599999999996e-6,1.18775e7
2.19634e-6,1.26043e7
2.2011199999999997e-6,1.33922e7
2.2059e-6,1.42465e7
2.2106799999999997e-6,1.5172699999999998e7
2.21546e-6,1.6176600000000002e7
2.2202399999999998e-6,1.72636e7
2.22502e-6,1.84392e7
2.2298e-6,1.97082e7
2.2345799999999996e-6,2.10749e7
2.23936e-6,2.2542e7
2.2441399999999997e-6,2.41112e7
2.2505099999999997e-6,2.63605e7
2.2568800000000002e-6,2.87811e7
2.2632599999999997e-6,3.13543e7
2.2728199999999998e-6,3.54307e7
2.28811e-6,4.21023e7
2.29576e-6,4.52512e7
2.3034099999999997e-6,4.80838e7
2.30914e-6,4.99106e7
2.3139199999999997e-6,5.119030000000001e7
2.3187e-6,5.2217e7
2.3234799999999997e-6,5.29661e7
2.32826e-6,5.34188e7
2.3330799999999996e-6,5.35639e7
2.33674e-6,5.34629e7
2.34229e-6,5.296630000000001e7
2.34707e-6,5.22183e7
2.35185e-6,5.11934e7
2.35663e-6,4.99167e7
2.36141e-6,4.8418e7
2.36746e-6,4.62536e7
2.3760599999999997e-6,4.28013e7
2.40028e-6,3.2315299999999996e7
2.40666e-6,2.96879e7
2.41303e-6,2.72002e7
2.4194e-6,2.4875e7
2.42578e-6,2.27249e7
2.43056e-6,2.1230000000000004e7
2.43534e-6,1.98352e7
2.44012e-6,1.85382e7
2.4449e-6,1.73351e7
2.44968e-6,1.62216e7
2.45446e-6,1.51926e7
2.45924e-6,1.42425e7
2.46402e-6,1.3366e7
2.4688e-6,1.25576e7
2.47358e-6,1.18119e7
2.4783599999999996e-6,1.11238e7
2.48314e-6,1.0488599999999998e7
2.4879199999999996e-6,9.90177e6
2.4923799999999995e-6,9.39405e6
2.49811e-6,8.79286e6
2.5038499999999998e-6,8.24418e6
2.5095900000000002e-6,7.74258e6
2.51564e-6,7.25885e6
2.5220099999999996e-6,6.79498e6
2.52839e-6,6.3725e6
2.5347599999999996e-6,5.98687e6
2.5411299999999997e-6,5.63411e6
2.54751e-6,5.31073e6
2.5538799999999997e-6,5.01366e6
2.5602499999999998e-6,4.74022e6
2.5666299999999997e-6,4.48804e6
2.5729999999999998e-6,4.25501e6
2.58256e-6,3.9374e6
2.58893e-6,3.74464e6
2.59806e-6,3.49177e6
2.6072e-6,3.26325e6
2.61633e-6,3.05608e6
2.62546e-6,2.86774e6
2.63472e-6,2.69372e6
2.64398e-6,2.53484e6
2.6532399999999997e-6,2.38944e6
2.6625e-6,2.25603e6
2.67189e-6,2.13169e6
2.68128e-6,2.01722e6
2.69067e-6,1.91161e6
2.70006e-6,1.81396e6
2.71435e-6,1.67897e6
2.7286299999999996e-6,1.55829e6
2.74298e-6,1.44951e6
2.75747e-6,1.3507e6
2.77196e-6,1.26154e6
2.7865799999999996e-6,1.1801e6
2.80127e-6,1.10588e6
2.81596e-6,1.03836e6
2.8308599999999996e-6,975948.0
2.8457599999999997e-6,918933.0
2.86073e-6,866482.0000000001
2.87583e-6,817916.0
2.89094e-6,773277.0
2.90619e-6,731784.0
2.92662e-6,681185.0
2.9471899999999996e-6,635301.0
2.96791e-6,593581.0
2.98877e-6,555551.0
3.00978e-6,520810.99999999994
3.03094e-6,489006.99999999994
3.0522399999999996e-6,459823.0
3.0737e-6,432972.0
3.0953099999999997e-6,408204.0
3.11706e-6,385311.0
3.13898e-6,364120.0
3.1610399999999997e-6,344483.0
3.1832600000000002e-6,326267.0
3.2056399999999997e-6,309345.0
3.22817e-6,293601.0
3.26229e-6,271959.0
3.29673e-6,252447.0
3.33149e-6,234784.00000000003
3.3667399999999997e-6,218685.99999999997
3.4023199999999997e-6,204056.00000000003
3.43824e-6,190727.0
3.4744899999999997e-6,178557.0
3.5112499999999996e-6,167369.0
3.54836e-6,157114.0
3.5858199999999997e-6,147694.0
3.62363e-6,139024.0
3.66197e-6,130995.0
3.70068e-6,123583.0
3.73974e-6,116728.00000000001
3.7791699999999998e-6,110379.0
3.8191599999999995e-6,104462.00000000001
3.85953e-6,98967.6
3.91398e-6,92229.2
3.9692e-6,86089.2
4.02519e-6,80482.9
4.0819799999999995e-6,75353.5
4.13957e-6,70651.59999999999
4.19797e-6,66336.4
4.2572e-6,62376.4
4.31726e-6,58723.4
4.3781699999999995e-6,55344.2
4.43994e-6,52220.2
4.50258e-6,49328.8
4.566099999999999e-6,46649.200000000004
4.63052e-6,44162.4
4.69585e-6,41851.799999999996
4.7621e-6,39702.2
4.82928e-6,37700.1
4.8974200000000005e-6,35833.2
4.9665100000000005e-6,34090.7
5.071859999999999e-6,31690.999999999996
5.17969e-6,29513.600000000002
5.28956e-6,27542.9
5.40203e-6,25747.399999999998
5.5166199999999995e-6,24116.0
5.63391e-6,22624.1
5.75341e-6,21263.7
5.87574e-6,20015.3
6.00038e-6,18873.2
6.127959999999999e-6,17823.3
6.257939999999999e-6,16862.9
6.3909999999999995e-6,15971.800000000001
6.526559999999999e-6,15151.9
6.66533e-6,14393.0
6.806709999999999e-6,13693.1
6.95143e-6,13043.7
7.09888e-6,12443.4
7.3006e-6,11708.7
7.508049999999999e-6,11042.8
7.7214e-6,10437.9
7.9408e-6,9887.58
8.16644e-6,9386.14
8.3985e-6,8928.470000000001
8.63714e-6,8510.130000000001
8.94523e-6,8036.32
9.26385e-6,7611.919999999999
9.59429e-6,7230.05
9.93604e-6,6888.3
1.02905e-5,6578.52
1.0657000000000001e-5,6299.89
1.1114400000000002e-5,6001.2
1.15109e-5,5778.39
1.2005e-5,5541.719999999999
1.2520300000000001e-5,5335.47
1.3057700000000002e-5,5156.74
1.3618200000000001e-5,5003.9400000000005
1.42028e-5,4880.0
1.48124e-5,4786.31
1.5340000000000002e-5,4734.77
1.5865700000000003e-5,4712.63
1.59555e-5,4711.9400000000005
1.64089e-5,4724.71
1.68751e-5,4768.589999999999
1.72339e-5,4827.94
1.75995e-5,4916.280000000001
1.79737e-5,5042.469999999999
1.82273e-5,5153.13
1.8484400000000002e-5,5290.549999999999
1.87452e-5,5460.9800000000005
1.9009700000000002e-5,5672.58
1.92104e-5,5864.67
1.9412900000000002e-5,6091.580000000001
1.96183e-5,6360.44
1.9825700000000002e-5,6682.69
1.9964500000000002e-5,6932.03
2.0105400000000002e-5,7216.84
2.0246200000000003e-5,7538.78
2.0389e-5,7909.32
2.05318e-5,8331.759999999998
2.06767e-5,8822.609999999999
2.0785300000000002e-5,9238.99
2.0894900000000002e-5,9707.94
2.10051e-5,10235.7
2.1115300000000004e-5,10828.9
2.1227000000000002e-5,11508.5
2.13387e-5,12279.800000000001
2.14132e-5,12852.9
2.1488700000000003e-5,13489.1
2.15642e-5,14187.199999999999
2.1639700000000002e-5,14954.7
2.1715300000000002e-5,15800.4
2.1791800000000004e-5,16749.7
2.1868400000000002e-5,17806.2
2.1945000000000004e-5,18985.9
2.2021600000000003e-5,20307.2
2.2079900000000002e-5,21420.6
2.21381e-5,22640.5
2.2196400000000003e-5,23980.7
2.2254600000000002e-5,25457.0
2.23129e-5,27088.0
2.23717e-5,28913.600000000002
2.2430800000000002e-5,30955.8
2.2489800000000003e-5,33238.8
2.2548900000000004e-5,35801.0
2.2588300000000002e-5,37686.799999999996
2.2627700000000004e-5,39733.200000000004
2.2664200000000002e-5,41791.600000000006
2.27148e-5,44924.7
2.2765300000000004e-5,48437.5
2.2799000000000003e-5,51021.5
2.2832700000000002e-5,53824.7
2.28664e-5,56872.5
2.29001e-5,60193.899999999994
2.2930700000000004e-5,63462.899999999994
2.2971600000000002e-5,68296.0
2.3012500000000004e-5,73712.7
2.3039900000000003e-5,77695.3
2.30672e-5,82014.5
2.30944e-5,86709.20000000001
2.3121700000000003e-5,91824.4
2.3146800000000003e-5,96926.90000000001
2.3180900000000004e-5,104607.99999999999
2.3203600000000003e-5,110253.0
2.32264e-5,116373.0
2.32491e-5,123021.0
2.32719e-5,130261.0
2.3294700000000002e-5,138165.0
2.33174e-5,146818.0
2.3344700000000004e-5,158327.0
2.3362900000000003e-5,166775.0
2.3381100000000002e-5,175925.0
2.33993e-5,185855.0
2.3417500000000004e-5,196659.0
2.3435700000000003e-5,208443.99999999997
2.3453900000000003e-5,221334.0
2.3471000000000003e-5,234548.99999999997
2.34869e-5,247996.00000000003
2.3502800000000005e-5,262651.0
2.3518700000000002e-5,278666.0
2.3534700000000004e-5,296221.0
2.35506e-5,315521.0
2.3566500000000002e-5,336814.0
2.35824e-5,360390.0
2.3596100000000003e-5,382676.0
2.36075e-5,402907.0
2.3618800000000005e-5,424828.0
2.3630200000000003e-5,448636.00000000006
2.36416e-5,474554.0
2.3653000000000002e-5,502839.0
2.36643e-5,533785.0
2.3675700000000004e-5,567728.0
2.36887e-5,610572.0
2.36996e-5,650542.0
2.37105e-5,694543.0
2.37214e-5,743082.0
2.3732400000000003e-5,796728.0
2.37396e-5,835638.0
2.3748700000000002e-5,888176.0
2.3757799999999998e-5,945448.0
2.37669e-5,1.0079199999999999e6
2.3776000000000004e-5,1.07608e6
2.37851e-5,1.15045e6
2.3794200000000003e-5,1.23158e6
2.38033e-5,1.32003e6
2.3812400000000003e-5,1.41639e6
2.3821500000000006e-5,1.52122e6
2.3830600000000002e-5,1.63509e6
2.3839700000000005e-5,1.75855e6
2.38488e-5,1.89208e6
2.3857900000000004e-5,2.03613e6
2.3867e-5,2.19104e6
2.3876100000000003e-5,2.35706e6
2.3885200000000003e-5,2.5343e6
2.3894300000000003e-5,2.72272e6
2.3908000000000002e-5,3.02578e6
2.39216e-5,3.35184e6
2.3935300000000004e-5,3.6981e6
2.3953500000000004e-5,4.18403e6
2.39944e-5,5.30707e6
2.4012600000000005e-5,5.7758e6
2.40263e-5,6.09612e6
2.4038100000000003e-5,6.34407e6
2.4049000000000003e-5,6.5433e6
2.4060000000000003e-5,6.70992e6
2.4073600000000003e-5,6.86712e6
2.4082700000000002e-5,6.93799e6
2.4091800000000002e-5,6.98042e6
2.41004e-5,6.99382e6
2.4112700000000004e-5,6.96753e6
2.4121800000000003e-5,6.91418e6
2.41355e-5,6.78217e6
2.4147300000000002e-5,6.62051e6
2.41546e-5,6.50104e6
2.4169200000000002e-5,6.2216e6
2.4182800000000005e-5,5.9181e6
2.41965e-5,5.58366e6
2.4219200000000004e-5,4.98269e6
2.4255600000000002e-5,3.9966e6
2.42738e-5,3.52823e6
