E(MeV),xs(mb)
1.0e-11,131262.0
1.03223e-11,129212.0
1.06549e-11,127194.0
1.0998399999999998e-11,125208.00000000001
1.13527e-11,123254.0
1.1718599999999999e-11,121331.00000000001
1.2096199999999998e-11,119438.0
1.24861e-11,117575.00000000001
1.2888399999999999e-11,115741.99999999999
1.3303799999999998e-11,113938.0
1.37325e-11,112162.99999999999
1.41751e-11,110415.0
1.4631799999999997e-11,108695.99999999999
1.51034e-11,107003.0
1.5590099999999998e-11,105338.0
1.6092599999999998e-11,103699.00000000001
1.66111e-11,102087.0
1.71465e-11,100499.99999999999
1.7699e-11,98938.2
1.8269399999999998e-11,97401.09999999999
1.88581e-11,95888.9
1.94659e-11,94400.4
2.00931e-11,92936.09999999999
2.0740699999999998e-11,91494.70000000001
2.1408999999999998e-11,90076.7
2.2099099999999997e-11,88680.90000000001
2.28111e-11,87307.79999999999
2.3546399999999998e-11,85956.3
2.4305099999999997e-11,84626.8
2.50884e-11,83318.20000000001
2.5896799999999997e-11,82030.8
2.67315e-11,80763.8
2.75928e-11,79517.3
2.8482199999999998e-11,78290.5
2.93999e-11,77083.7
3.0347499999999995e-11,75896.0
3.13253e-11,74727.6
3.2335e-11,73577.7
3.33769e-11,72446.59999999999
3.44526e-11,71333.4
3.55627e-11,70238.3
3.67089e-11,69160.7
3.7891799999999997e-11,68100.6
3.9113e-11,67057.5
4.0373400000000003e-11,66031.4
4.1674599999999996e-11,65021.6
4.3017399999999996e-11,64028.4
4.440389999999999e-11,63051.00000000001
4.58347e-11,62089.600000000006
4.7311899999999994e-11,61143.700000000004
4.883639999999999e-11,60213.200000000004
5.0410399999999995e-11,59297.700000000004
5.20348e-11,58397.2
5.37119e-11,57511.200000000004
5.54426e-11,56639.799999999996
5.7229499999999995e-11,55782.4
5.907359999999999e-11,54939.1
6.09775e-11,54109.4
6.29424e-11,53293.5
6.497099999999999e-11,52490.7
6.70645e-11,51701.2
6.9226e-11,50924.50000000001
7.145659999999999e-11,50160.7
7.37596e-11,49409.299999999996
7.61364e-11,48670.299999999996
7.85902e-11,47943.4
8.11227e-11,47228.6
8.37372e-11,46525.5
8.643549999999999e-11,45834.1
8.922119999999998e-11,45154.0
9.209619999999999e-11,44485.299999999996
9.506439999999999e-11,43827.5
9.81277e-11,43180.8
1.01291e-10,42544.6
1.04554e-10,41919.3
1.07924e-10,41304.100000000006
1.11402e-10,40699.50000000001
1.1499200000000001e-10,40104.7
1.1869700000000001e-10,39520.1
1.22523e-10,38945.0
1.26471e-10,38379.8
1.30547e-10,37823.9
1.34754e-10,37277.6
1.3909700000000002e-10,36740.2
1.43579e-10,36212.200000000004
1.48207e-10,35692.8
1.53306e-10,35148.6
1.58582e-10,34614.2
1.64039e-10,34089.5
1.6968399999999999e-10,33574.299999999996
1.75523e-10,33068.5
1.8156300000000002e-10,32571.8
1.8781000000000002e-10,32084.199999999997
1.9427300000000002e-10,31605.500000000004
2.0095800000000003e-10,31135.5
2.0787300000000003e-10,30674.100000000002
2.15027e-10,30221.2
2.2242600000000002e-10,29776.600000000002
2.3008000000000002e-10,29340.1
2.3799700000000003e-10,28911.699999999997
2.46187e-10,28491.1
2.54658e-10,28078.3
2.63422e-10,27673.199999999997
2.72486e-10,27275.5
2.81863e-10,26885.2
2.9156200000000004e-10,26502.1
3.0159500000000003e-10,26126.2
3.1197300000000004e-10,25757.2
3.22708e-10,25395.1
3.3381300000000003e-10,25039.8
3.453e-10,24691.100000000002
3.57182e-10,24348.800000000003
3.69473e-10,24013.0
3.8218700000000003e-10,23683.5
3.9533900000000004e-10,23360.1
4.08943e-10,23042.8
4.23015e-10,22731.4
4.37571e-10,22425.899999999998
4.53585e-10,22107.600000000002
4.70189e-10,21795.5
4.873960000000001e-10,21489.8
5.05237e-10,21190.000000000004
5.23727e-10,20896.3
5.42898e-10,20608.5
5.62767e-10,20326.399999999998
5.83366e-10,20049.899999999998
6.04716e-10,19778.899999999998
6.268510000000001e-10,19513.3
6.49792e-10,19253.0
6.735769999999999e-10,18997.9
6.982280000000001e-10,18747.899999999998
7.237860000000001e-10,18502.9
7.50275e-10,18262.7
7.77738e-10,18027.3
8.062010000000001e-10,17796.6
8.35712e-10,17570.399999999998
8.681330000000001e-10,17335.8
9.01812e-10,17106.2
9.367979999999999e-10,16881.3
9.731410000000001e-10,16661.2
1.0108900000000002e-9,16445.6
1.0501100000000002e-9,16234.599999999999
1.0908500000000002e-9,16027.9
1.1331700000000001e-9,15825.499999999998
1.17713e-9,15627.4
1.2228000000000002e-9,15433.300000000001
1.2702400000000002e-9,15243.3
1.31952e-9,15057.199999999999
1.3736e-9,14864.900000000001
1.4299200000000002e-9,14676.800000000001
1.48853e-9,14492.8
1.5495600000000002e-9,14312.800000000001
1.61307e-9,14136.7
1.6792000000000002e-9,13964.300000000001
1.74804e-9,13795.800000000001
1.8197000000000002e-9,13630.800000000001
1.89429e-9,13469.4
1.9719500000000004e-9,13311.5
2.05278e-9,13157.000000000002
2.14146e-9,12997.9
2.23397e-9,12842.4
2.33047e-9,12690.4
2.4311400000000004e-9,12541.800000000001
2.5361600000000005e-9,12396.6
2.64571e-9,12254.6
2.76e-9,12115.7
2.8792200000000003e-9,11980.0
3.0099600000000002e-9,11840.800000000001
3.1466300000000003e-9,11704.8
3.28951e-9,11572.0
3.4388600000000003e-9,11442.300000000001
3.5950200000000003e-9,11315.599999999999
3.75824e-9,11191.9
3.9288900000000005e-9,11071.0
4.1159800000000005e-9,10947.4
4.31198e-9,10826.800000000001
4.51731e-9,10709.2
4.7324200000000005e-9,10594.4
4.95777e-9,10482.3
5.19385e-9,10373.000000000002
5.44117e-9,10266.3
5.71233e-9,10157.5
5.9970200000000005e-9,10051.5
6.2958700000000005e-9,9948.1
6.609650000000001e-9,9847.31
6.939030000000001e-9,9749.06
7.300270000000001e-9,9649.16
7.680310000000001e-9,9551.869999999999
8.08013e-9,9457.11
8.50077e-9,9364.83
8.9433e-9,9274.95
9.42882e-9,9183.81
9.94064e-9,9095.140000000001
1.04803e-8,9008.87
1.10492e-8,8924.93
1.1673700000000001e-8,8840.03
1.2333400000000002e-8,8757.52
1.30305e-8,8677.31
1.37669e-8,8599.349999999999
1.4575800000000002e-8,8520.68
1.54321e-8,8444.3
1.63389e-8,8370.12
1.72988e-8,8298.09
1.83539e-8,8225.59
1.94734e-8,8155.26
2.0661200000000003e-8,8087.030000000001
2.19678e-8,8018.509999999999
2.3357000000000002e-8,7952.12
2.4834200000000003e-8,7887.7699999999995
2.52522e-8,7870.599999999999
2.5299999999999998e-8,7868.67
2.69569e-8,7804.79
2.8722400000000002e-8,7742.950000000001
3.0668300000000003e-8,7681.110000000001
3.2745799999999997e-8,7621.31
3.4964300000000004e-8,7563.46
3.74121e-8,7505.75
4.00312e-8,7449.9800000000005
4.29242e-8,7394.45
4.60265e-8,7340.82
4.94573e-8,7287.5199999999995
5.3143900000000004e-8,7236.11
5.7226100000000004e-8,7185.1
6.16221e-8,7135.97
6.649610000000001e-8,7087.3
7.17556e-8,7040.47
7.759490000000001e-8,6994.17
8.40871e-8,6948.48
9.11225e-8,6904.57
9.89558e-8,6861.29
1.0769e-7,6818.71
1.17442e-7,6776.88
1.28079e-7,6736.82
1.3997399999999998e-7,6697.5199999999995
1.53297e-7,6659.03
1.6824399999999998e-7,6621.39
1.8504e-7,6584.61
2.03943e-7,6548.72
2.2525199999999998e-7,6513.76
2.49315e-7,6479.73
2.76533e-7,6446.65
3.07372e-7,6414.53
3.4309699999999997e-7,6382.7699999999995
3.8378399999999996e-7,6351.99
4.30206e-7,6322.21
4.842869999999999e-7,6292.889999999999
5.463219999999999e-7,6264.56
6.189119999999999e-7,6236.73
7.04121e-7,6209.43
8.04453e-7,6182.65
9.229819999999999e-7,6156.39
1.0571799999999999e-6,6131.69
1.3320799999999998e-6,6092.030000000001
1.98583e-6,6028.900000000001
3.4294899999999997e-6,5947.94
6.264039999999999e-6,5855.7699999999995
1.17665e-5,5742.17
2.22573e-5,5590.3099999999995
4.1227000000000004e-5,5347.51
4.84352e-5,5223.61
5.3425900000000006e-5,5104.12
5.5070100000000007e-5,5066.650000000001
5.5387800000000005e-5,5076.42
5.5530200000000006e-5,5100.42
5.56124e-5,5137.8
5.566720000000001e-5,5186.7
5.571100000000001e-5,5250.07
5.576030000000001e-5,5359.3099999999995
5.5793100000000006e-5,5460.6
5.5826000000000004e-5,5587.87
5.5863800000000005e-5,5766.72
5.591580000000001e-5,6059.88
5.59925e-5,6515.349999999999
5.602540000000001e-5,6678.9
5.60582e-5,6800.32
5.6086200000000005e-5,6860.74
5.6110200000000004e-5,6877.18
5.6138800000000005e-5,6852.509999999999
5.616780000000001e-5,6780.37
5.6200700000000006e-5,6649.16
5.624450000000001e-5,6415.4
5.63376e-5,5856.96
5.6385800000000005e-5,5610.48
5.64176e-5,5477.7
5.645590000000001e-5,5349.9400000000005
5.64943e-5,5254.39
5.653260000000001e-5,5185.349999999999
5.6570900000000004e-5,5136.549999999999
5.66257e-5,5090.97
5.6735300000000005e-5,5044.6900000000005
5.6998200000000006e-5,5003.639999999999
5.77541e-5,4956.05
6.156850000000001e-5,4778.58
6.2519e-5,4752.83
6.276590000000001e-5,4751.7699999999995
6.32087e-5,4760.41
6.36514e-5,4790.14
6.39882e-5,4835.54
6.4325e-5,4912.02
6.45495e-5,4988.24
6.47835e-5,5098.59
6.493960000000001e-5,5195.87
6.50956e-5,5318.06
6.52508e-5,5471.17
6.536660000000001e-5,5611.32
6.548240000000001e-5,5779.15
6.55981e-5,5981.13
6.571390000000001e-5,6225.6
6.58258e-5,6512.55
6.58952e-5,6721.29
6.59647e-5,6958.0599999999995
6.60341e-5,7227.5
6.61036e-5,7535.25
6.6173e-5,7888.19
6.62425e-5,8294.84
6.62946e-5,8641.37
6.63467e-5,9029.47
6.640460000000001e-5,9517.369999999999
6.64624e-5,10075.400000000001
6.65203e-5,10716.699999999999
6.65589e-5,11198.5
6.659750000000001e-5,11730.5
6.663610000000001e-5,12319.4
6.667270000000001e-5,12939.0
6.670740000000001e-5,13587.499999999998
6.67422e-5,14304.300000000001
6.677690000000001e-5,15098.9
6.681160000000001e-5,15982.7
6.68464e-5,16969.5
6.68811e-5,18075.600000000002
6.690710000000001e-5,18995.4
6.69332e-5,20003.7
6.695920000000001e-5,21112.1
6.69853e-5,22334.7
6.70113e-5,23688.1
6.70374e-5,25192.5
6.70634e-5,26872.1
6.70868e-5,28551.000000000004
6.71087e-5,30307.300000000003
6.713070000000001e-5,32260.8
6.71493e-5,34083.1
6.71678e-5,36093.0
6.718320000000001e-5,37932.2
6.71986e-5,39942.1
6.72141e-5,42146.5
6.722950000000001e-5,44573.5
6.72449e-5,47256.299999999996
6.72604e-5,50234.2
6.72758e-5,53553.8
6.72913e-5,57270.399999999994
6.73028e-5,60357.0
6.73144e-5,63734.9
6.7326e-5,67439.90000000001
6.733760000000001e-5,71512.4
6.73491e-5,75997.59999999999
6.73607e-5,80946.20000000001
6.737230000000001e-5,86414.9
6.738390000000001e-5,92466.6
6.73954e-5,99171.3
6.740700000000001e-5,106606.0
6.74186e-5,114853.99999999999
6.74302e-5,124008.0
6.744170000000002e-5,134169.0
6.74533e-5,145442.0
6.74649e-5,157944.0
6.747650000000001e-5,171797.0
6.7488e-5,187129.0
6.74996e-5,204075.0
6.751120000000001e-5,222773.99999999997
6.752280000000001e-5,243367.00000000003
6.75343e-5,265998.0
6.754590000000001e-5,290807.0
6.75575e-5,317936.0
6.756910000000001e-5,347514.0
6.758060000000001e-5,379666.0
6.75922e-5,414501.0
6.76038e-5,452114.0
6.761540000000001e-5,492577.0
6.76269e-5,535941.0
6.76373e-5,577149.0
6.765030000000001e-5,632096.0
6.76632e-5,690632.0
6.767620000000001e-5,752632.0
6.769130000000001e-5,829083.0
6.770860000000001e-5,921350.0
6.77296e-5,1.03919e6
6.779130000000001e-5,1.40186e6
6.7816e-5,1.54172e6
6.783450000000001e-5,1.63965e6
6.785310000000001e-5,1.72897e6
6.78716e-5,1.80741e6
6.789010000000001e-5,1.87292e6
6.79086e-5,1.9237e6
6.79222e-5,1.95076e6
6.793580000000001e-5,1.96873e6
6.79526e-5,1.978e6
6.795420000000001e-5,1.97813e6
6.79716e-5,1.97102e6
6.799010000000001e-5,1.94664e6
6.80086e-5,1.90564e6
6.80272e-5,1.84925e6
6.804570000000001e-5,1.77908e6
6.80642e-5,1.69705e6
6.808270000000001e-5,1.60536e6
6.81074e-5,1.47204e6
6.818150000000001e-5,1.0471999999999999e6
6.82037e-5,925816.0
6.822350000000001e-5,824028.0
6.8242e-5,734892.0
6.825430000000001e-5,679185.0
6.82659e-5,629790.0
6.82767e-5,586212.0
6.828750000000001e-5,545091.0
6.829830000000001e-5,506422.0
6.83091e-5,470174.99999999994
6.83199e-5,436305.00000000006
6.83308e-5,404749.0
6.834150000000001e-5,375428.0
6.835390000000001e-5,344544.0
6.83643e-5,320561.0
6.83747e-5,298379.0
6.83852e-5,277901.0
6.83956e-5,259029.0
6.840600000000001e-5,241663.0
6.84164e-5,225704.0
6.84268e-5,211055.0
6.843720000000001e-5,197621.0
6.84477e-5,185311.0
6.845810000000001e-5,174037.0
6.84697e-5,162624.0
6.84812e-5,152277.0
6.849280000000001e-5,142897.0
6.850440000000001e-5,134390.0
6.8516e-5,126669.00000000001
6.852750000000001e-5,119654.0
6.853910000000001e-5,113274.99999999999
6.855070000000001e-5,107464.0
6.85623e-5,102162.0
6.857380000000001e-5,97317.2
6.858750000000001e-5,92107.6
6.86055e-5,86032.2
6.86234e-5,80682.50000000001
6.864140000000001e-5,75945.5
6.86593e-5,71727.2
6.867720000000001e-5,67950.3
6.86952e-5,64550.1
6.871310000000001e-5,61473.8
6.873710000000001e-5,57800.3
6.8761e-5,54540.100000000006
6.8781e-5,52075.4
6.880530000000001e-5,49370.5
6.882970000000001e-5,46930.899999999994
6.8854e-5,44719.3
6.88864e-5,42073.7
6.89188e-5,39722.5
6.895120000000001e-5,37620.1
6.898360000000001e-5,35730.1
6.9016e-5,34023.0
6.905150000000001e-5,32334.5
6.909010000000001e-5,30684.399999999998
6.91287e-5,29200.300000000003
6.91673e-5,27859.699999999997
6.920590000000001e-5,26643.6
6.926370000000001e-5,25019.399999999998
6.93216e-5,23597.7
6.938340000000001e-5,22266.499999999996
6.9447e-5,21060.8
6.95107e-5,19997.0
6.957440000000001e-5,19052.8
6.9638e-5,18210.0
6.971910000000001e-5,17261.2
6.979620000000001e-5,16466.0
6.98734e-5,15759.7
6.995060000000001e-5,15128.900000000001
7.006630000000001e-5,14301.2
7.018210000000001e-5,13590.599999999999
7.02978e-5,12975.099999999999
7.04136e-5,12437.7
7.052940000000002e-5,11965.2
7.068370000000001e-5,11418.2
7.0838e-5,10948.599999999999
7.100780000000001e-5,10504.1
7.119300000000001e-5,10088.6
7.137820000000001e-5,9731.75
7.15635e-5,9422.230000000001
7.17824e-5,9105.49
7.203520000000001e-5,8793.5
7.22879e-5,8527.53
7.266700000000001e-5,8195.460000000001
7.30514e-5,7921.22
7.34359e-5,7694.320000000001
7.39521e-5,7445.32
7.447190000000001e-5,7242.63
7.49954e-5,7074.76
7.578620000000001e-5,6871.44
7.65881e-5,6709.3
7.73975e-5,6577.91
7.848950000000001e-5,6437.03
8.01544e-5,6276.51
8.18586e-5,6155.59
8.41847e-5,6034.37
8.71833e-5,5923.14
9.15669e-5,5811.63
9.75231e-5,5710.740000000001
0.00010607500000000002,5615.1900000000005
0.000120294,5511.88
0.000146007,5386.75
0.00018435600000000002,5227.56
0.00018491700000000002,5232.66
0.000185157,5247.91
0.00018528000000000001,5272.15
0.00018538900000000002,5315.929999999999
0.000185482,5380.87
0.00018558300000000002,5488.82
0.000185693,5648.6
0.000185875,5942.280000000001
0.000185951,6031.75
0.000186025,6075.3
0.00018605300000000002,6079.13
0.00018612000000000001,6058.55
0.00018618600000000002,6000.89
0.000186282,5867.58
0.00018646,5575.59
0.00018654700000000001,5456.96
0.000186646,5359.3
0.000186761,5289.27
0.00018687600000000002,5252.51
0.00018708100000000002,5226.969999999999
0.000188109,5207.6
0.000206892,5091.929999999999
0.000217504,4997.969999999999
0.00021806100000000003,5008.320000000001
0.00021831900000000002,5035.650000000001
0.000218438,5070.71
0.000218538,5130.79
0.00021860400000000004,5200.67
0.000218653,5277.88
0.000218697,5370.02
0.00021873800000000003,5481.9800000000005
0.00021877900000000003,5624.98
0.000218819,5805.31
0.00021886000000000003,6029.4400000000005
0.00021888700000000002,6206.349999999999
0.000218924,6487.099999999999
0.00021896100000000002,6816.3099999999995
0.00021899799999999998,7196.4800000000005
0.000219036,7628.45
0.000219075,8147.3099999999995
0.000219115,8719.46
0.000219168,9550.35
0.00021930000000000002,11742.1
0.00021934200000000003,12387.4
0.000219387,13010.4
0.000219419,13379.0
0.00021945100000000004,13681.8
0.00021948500000000003,13923.099999999999
0.00021952200000000002,14083.1
0.000219555,14125.7
0.00021958000000000004,14097.900000000001
0.00021961,13994.3
0.00021964600000000002,13774.599999999999
0.000219678,13500.6
0.00021970900000000003,13159.5
0.000219752,12617.3
0.00021979700000000004,11960.2
0.00021986300000000002,10896.699999999999
0.000219941,9634.92
0.000219994,8834.6
0.000220035,8267.09
0.000220079,7723.8
0.00022010800000000003,7398.97
0.00022014999999999998,6986.7699999999995
0.000220188,6666.26
0.000220226,6392.7
0.00022026300000000003,6162.25
0.000220301,5970.349999999999
0.00022033900000000003,5812.2
0.000220388,5647.44
0.00022043800000000002,5522.54
0.000220471,5456.91
0.000220537,5357.74
0.00022060399999999998,5289.4800000000005
0.00022070300000000002,5222.85
0.000220869,5160.13
0.00022113299999999998,5107.53
0.00022139799999999998,5076.63
0.000221981,5037.219999999999
0.00022304100000000002,4999.84
0.000227385,4921.65
0.00023521700000000002,4789.4800000000005
0.000239646,4691.97
0.000243214,4592.61
0.000246572,4474.63
0.00024831100000000003,4409.61
0.000248448,4407.62
0.00024865499999999997,4414.06
0.000248818,4443.0199999999995
0.000248902,4476.2300000000005
0.00024898600000000003,4529.67
0.00024907,4609.81
0.000249136,4694.33
0.000249207,4808.27
0.000249301,4992.71
0.00024945100000000003,5319.49
0.00024952100000000005,5455.68
0.000249587,5558.96
0.00024965,5622.860000000001
0.00024971199999999997,5646.4
0.000249776,5626.98
0.000249839,5566.13
0.000249902,5469.59
0.000249994,5282.3
0.000250183,4856.79
0.00025026700000000004,4696.25
0.00025034000000000005,4581.8099999999995
0.000250414,4492.36
0.00025048700000000003,4425.45
0.000250602,4356.54
0.00025072500000000004,4314.36
0.000250889,4284.169999999999
0.000251217,4251.9
0.000253604,4075.54
0.000255178,3938.12
0.00025627900000000004,3825.91
0.00025738,3697.4300000000003
0.000258481,3550.29
0.000259582,3382.92
0.000261576,3049.02
0.00026210000000000003,2973.87
0.000262494,2934.23
0.00026280600000000003,2921.42
0.000263022,2927.52
0.000263238,2951.24
0.000263401,2984.54
0.000263563,3035.4700000000003
0.000263725,3109.72
0.000263861,3196.0899999999997
0.000263942,3262.4900000000002
0.000264024,3343.4
0.000264105,3443.04
0.000264186,3566.9900000000002
0.000264247,3679.9300000000003
0.000264308,3813.5
0.000264369,3970.86
0.00026443,4154.81
0.00026449300000000003,4374.76
0.00026455600000000005,4626.13
0.000264619,4908.11
0.000264682,5217.96
0.00026476600000000005,5666.719999999999
0.000264884,6340.54
0.00026504,7281.22
0.000265136,7897.070000000001
0.000265209,8419.5
0.000265265,8868.96
0.00026530900000000003,9265.09
0.000265359,9772.970000000001
0.000265397,10213.4
0.000265433,10672.8
0.000265468,11187.9
0.00026550600000000004,11813.3
0.000265545,12552.300000000001
0.000265572,13105.0
0.00026559800000000003,13712.4
0.000265624,14381.3
0.00026565,15119.400000000001
0.000265677,15935.5
0.000265705,16931.7
0.00026572900000000003,17833.8
0.000265752,18827.6
0.000265776,19925.0
0.000265799,21139.5
0.000265824,22554.5
0.000265841,23686.699999999997
0.000265859,24916.0
0.00026587700000000003,26252.5
0.000265895,27707.600000000002
0.00026591300000000005,29293.6
0.000265931,31024.0
0.000265949,32914.1
0.00026597000000000003,35381.9
0.000265988,37744.4
0.000266006,40337.1
0.00026602500000000003,43184.7
0.000266043,46312.7
0.00026606100000000005,49749.8
0.00026608000000000003,53526.7
0.000266098,57676.600000000006
0.00026611600000000005,62234.99999999999
0.000266135,67240.0
0.000266153,72731.9
0.000266169,78127.5
0.000266186,83985.0
0.000266202,90339.6
0.000266219,97226.59999999999
0.00026623500000000003,104684.0
0.000266252,112749.00000000001
0.000266268,121461.0
0.000266285,130858.99999999999
0.000266301,140985.0
0.00026631800000000003,151878.0
0.000266337,165382.0
0.00026635200000000003,177573.0
0.000266368,190588.0
0.000266384,204460.0
0.0002664,219221.99999999997
0.000266416,234902.0
0.00026644,260200.0
0.000266462,285505.0
0.000266486,315879.0
0.000266511,348667.0
0.00026652900000000005,374849.0
0.000266553,411868.00000000006
0.00026658,455320.00000000006
0.00026660700000000003,501513.0
0.000266634,550270.0
0.000266672,622354.0
0.000266715,709127.0
0.000266833,956607.0
0.00026688,1.05021e6
0.00026692100000000004,1.12575e6
0.000266958,1.18687e6
0.000266991,1.23433e6
0.00026702000000000003,1.26963e6
0.00026705,1.29812e6
0.000267084,1.32207e6
0.000267119,1.33568e6
0.00026714400000000003,1.33838e6
0.000267176,1.33326e6
0.000267203,1.32196e6
0.00026722800000000005,1.3056e6
0.000267263,1.27356e6
0.000267298,1.2319e6
0.000267337,1.17571e6
0.00026736399999999997,1.13111e6
0.000267399,1.06862e6
0.00026745400000000003,963193.0
0.000267568,733435.0
0.000267609,652917.0
0.000267642,592164.0
0.00026767,542021.0
0.000267699,494562.0
0.000267727,449985.00000000006
0.000267756,408425.0
0.00026777500000000004,382428.0
0.000267799,350911.0
0.00026782300000000004,321663.0
0.000267848,294640.0
0.00026787200000000005,269777.0
0.000267897,246989.0
0.000267915,231203.0
