E(MeV),xs(mb)
1.0e-11,36374.1
1.03223e-11,35815.6
1.06549e-11,35266.4
1.0998399999999998e-11,34725.700000000004
1.13527e-11,34194.1
1.1718599999999999e-11,33670.8
1.2096199999999998e-11,33156.2
1.24861e-11,32649.7
1.2888399999999999e-11,32151.7
1.3303799999999998e-11,31661.5
1.37325e-11,31179.399999999998
1.41751e-11,30705.0
1.4631799999999997e-11,30238.6
1.51034e-11,29779.5
1.5590099999999998e-11,29328.1
1.6092599999999998e-11,28883.800000000003
1.66111e-11,28447.0
1.71465e-11,28017.2
1.7699e-11,27594.6
1.8269399999999998e-11,27178.8
1.88581e-11,26769.9
1.94659e-11,26367.600000000002
2.00931e-11,25972.1
2.0740699999999998e-11,25582.899999999998
2.1408999999999998e-11,25200.300000000003
2.2099099999999997e-11,24823.9
2.28111e-11,24453.9
2.3546399999999998e-11,24089.9
2.4305099999999997e-11,23732.000000000004
2.50884e-11,23380.0
2.5896799999999997e-11,23033.899999999998
2.67315e-11,22693.500000000004
2.75928e-11,22358.899999999998
2.8482199999999998e-11,22029.800000000003
2.93999e-11,21706.3
3.0347499999999995e-11,21388.2
3.13253e-11,21075.499999999996
3.2335e-11,20768.0
3.33769e-11,20465.8
3.44526e-11,20168.7
3.55627e-11,19876.6
3.67089e-11,19589.5
3.7891799999999997e-11,19307.3
3.9113e-11,19029.899999999998
4.0373400000000003e-11,18757.2
4.1674599999999996e-11,18489.3
4.3017399999999996e-11,18226.0
4.44977e-11,17950.1
4.60289e-11,17679.3
4.76129e-11,17413.5
4.92513e-11,17152.7
5.09461e-11,16896.7
5.2699199999999993e-11,16645.5
5.45126e-11,16399.0
5.638849999999999e-11,16157.1
5.83288e-11,15919.8
6.0336e-11,15687.0
6.24122e-11,15458.6
6.455989999999999e-11,15234.6
6.678149999999999e-11,15014.8
6.907949999999999e-11,14799.3
7.145659999999999e-11,14587.9
7.39156e-11,14380.599999999999
7.64591e-11,14177.4
7.90901e-11,13978.1
8.18117e-11,13782.7
8.46269e-11,13591.1
8.753909999999999e-11,13403.400000000001
9.05514e-11,13219.300000000001
9.36674e-11,13039.0
9.689059999999999e-11,12862.199999999999
1.0022500000000001e-10,12689.0
1.03674e-10,12519.3
1.0724100000000002e-10,12353.0
1.1093100000000001e-10,12190.099999999999
1.14749e-10,12030.6
1.1869700000000001e-10,11874.3
1.22782e-10,11721.3
1.27276e-10,11562.2
1.31934e-10,11406.7
1.36764e-10,11254.5
1.4176899999999998e-10,11105.9
1.46958e-10,10960.5
1.52336e-10,10818.5
1.57913e-10,10679.7
1.6369100000000001e-10,10544.199999999999
1.6968399999999999e-10,10411.699999999999
1.7589300000000003e-10,10282.3
1.8233200000000002e-10,10155.9
1.89005e-10,10032.5
1.95923e-10,9912.039999999999
2.0309300000000002e-10,9794.43
2.10972e-10,9672.96
2.1915700000000002e-10,9554.57
2.27659e-10,9439.220000000001
2.3649100000000004e-10,9326.84
2.45666e-10,9217.359999999999
2.5519599999999997e-10,9110.75
2.65097e-10,9006.919999999998
2.7538100000000004e-10,8905.83
2.8606500000000004e-10,8807.42
2.9779300000000004e-10,8706.38
3.09999e-10,8608.21
3.22708e-10,8512.82
3.3593600000000005e-10,8420.17
3.49709e-10,8330.16
3.64043e-10,8242.77
3.79769e-10,8153.499999999999
3.96174e-10,8066.969999999999
4.13288e-10,7983.1
4.3114100000000003e-10,7901.83
4.4976500000000005e-10,7823.08
4.70189e-10,7743.0199999999995
4.91536e-10,7665.6
5.13856e-10,7590.71
5.371870000000001e-10,7518.3
5.6158e-10,7448.2699999999995
5.88321e-10,7377.4
6.16336e-10,7308.99
6.45685e-10,7242.950000000001
6.77861e-10,7176.38
7.11646e-10,7112.21
7.47109e-10,7050.379999999999
7.86002e-10,6988.25
8.2692e-10,6928.47
8.699680000000001e-10,6870.95
9.171970000000001e-10,6813.34
9.66985e-10,6757.990000000001
1.0216400000000002e-9,6702.71
1.07938e-9,6649.67
1.1428e-9,6596.84
1.20994e-9,6546.2300000000005
1.28373e-9,6495.96
1.36204e-9,6447.84
1.44817e-9,6400.17
1.53975e-9,6354.59
1.64059e-9,6309.54
1.7517400000000002e-9,6265.11
1.87041e-9,6222.7300000000005
2.00135e-9,6181.03
2.1460000000000002e-9,6140.08
2.30109e-9,6101.099999999999
2.4726100000000002e-9,6062.9
2.66255e-9,6025.54
2.87315e-9,5989.06
3.10696e-9,5953.52
3.36691e-9,5918.95
3.6563500000000005e-9,5885.39
3.9790600000000005e-9,5852.86
4.33941e-9,5821.38
4.74242e-9,5790.969999999999
5.19385e-9,5761.639999999999
5.71233e-9,5732.76
6.2958700000000005e-9,5705.04
6.96844e-9,5677.91
7.7292e-9,5651.99
8.60931e-9,5626.76
9.63031e-9,5602.299999999999
1.0818000000000001e-8,5578.67
1.22037e-8,5555.92
1.3825300000000001e-8,5534.08
1.5728700000000002e-8,5513.17
1.8008e-8,5492.92
2.07049e-8,5473.68
2.39573e-8,5455.21
2.52522e-8,5448.92
2.5299999999999998e-8,5448.7
2.9585300000000003e-8,5431.129999999999
3.48168e-8,5414.46
4.13211e-8,5398.52
4.94573e-8,5383.37
5.98246e-8,5368.91
7.31341e-8,5355.209999999999
9.035510000000001e-8,5342.32
1.13296e-7,5330.04
1.4417899999999998e-7,5318.4800000000005
1.86612e-7,5307.58
2.46172e-7,5297.32
3.32385e-7,5287.6
4.6032299999999996e-7,5278.38
6.58053e-7,5269.46
9.75146e-7,5260.570000000001
2.60961e-6,5238.72
1.92131e-5,5135.73
5.9343500000000005e-5,4940.34
0.000106884,4750.3099999999995
0.00016135,4572.18
0.000224254,4404.77
0.000296372,4249.75
0.00038154400000000005,4103.22
0.00047888200000000003,3970.02
0.0005927170000000001,3846.91
0.000731656,3729.59
0.000899945,3620.18
0.0010904,3526.05
0.0011181300000000002,3517.9700000000003
0.00112772,3523.6299999999997
0.00113176,3538.3
0.00113401,3562.8700000000003
0.00113531,3595.27
0.00113622,3640.0299999999997
0.00113667,3677.39
0.00113713,3734.96
0.00113736,3777.67
0.0011375900000000002,3838.8300000000004
0.00113776,3907.81
0.00113787,3973.77
0.0011379600000000001,4039.8300000000004
0.0011380399999999999,4126.38
0.0011381300000000002,4241.450000000001
0.00113818,4339.2
0.00113824,4458.46
0.0011383,4604.15
0.00113835,4782.15
0.0011384000000000001,4940.98
0.00113844,5125.18
0.0011384799999999999,5338.57
0.00113852,5585.27
0.0011385700000000002,5869.94
0.00113861,6197.45
0.00113865,6573.5599999999995
0.0011387,7003.89
0.00113874,7494.96
0.00113877,7859.39
0.00113879,8255.82
0.00113882,8686.37
0.0011388499999999998,9153.29
0.0011388799999999999,9658.82
0.0011389100000000001,10205.1
0.0011389400000000002,10794.5
0.0011389800000000002,11662.699999999999
0.0011390100000000002,12563.800000000001
0.00113905,13547.800000000001
0.0011390800000000002,14620.0
0.00113912,15783.6
0.00113916,17043.0
0.00113919,18401.2
0.00113923,19861.6
0.00113927,21425.9
0.0011393,23096.0
0.00113934,24872.100000000002
0.0011393800000000002,27099.3
0.0011394200000000001,29471.5
0.00113948,32854.4
0.00113954,36474.2
0.00113961,41298.5
0.0011396800000000001,46397.3
0.0011398200000000002,56615.1
0.00113995,66615.2
0.0011400300000000002,72063.5
0.0011401,77105.0
0.00114017,81046.0
0.00114023,83781.5
0.0011403000000000001,86629.6
0.00114036,88577.0
0.00114042,89824.7
0.00114049,90337.8
0.0011405,90353.7
0.00114056,90035.90000000001
0.00114062,89022.79999999999
0.00114067,87683.0
0.00114072,86006.2
0.0011407799999999999,83302.8
0.0011408400000000002,80116.0
0.0011409100000000002,76189.6
0.00114099,70893.1
0.00114109,63470.3
0.0011413,47585.8
0.00114139,41435.5
0.00114146,36604.6
0.00114152,32978.4
0.00114157,29587.9
0.00114162,27210.2
0.0011416599999999999,24976.8
0.0011417,22891.4
0.00114174,20952.899999999998
0.0011417900000000002,19160.1
0.00114183,17509.600000000002
0.00114187,15997.699999999999
0.00114191,14618.800000000001
0.00114196,13367.1
0.00114199,12599.499999999998
0.00114201,11883.4
0.00114204,11216.3
0.00114207,10596.300000000001
0.0011420999999999998,10020.6
0.00114213,9487.5
0.0011421600000000001,8994.38
0.00114219,8539.25
0.00114221,8119.46
0.0011422399999999999,7733.27
0.00114227,7378.36
0.00114231,6900.34
0.00114236,6481.6900000000005
0.0011424,6116.01
0.00114244,5797.61
0.00114248,5521.03
0.00114253,5281.46
0.00114257,5074.22
0.0011426099999999998,4895.400000000001
0.00114266,4727.05
0.00114271,4560.7300000000005
0.00114277,4423.91
0.00114283,4311.35
0.0011429,4191.45
0.00114297,4098.38
0.0011430499999999998,4025.5400000000004
0.00114316,3943.6
0.00114329,3875.14
0.00114346,3813.33
0.0011436900000000002,3757.31
0.00114403,3701.4
0.0011446000000000002,3643.68
0.00114537,3598.64
0.00114633,3567.35
0.00114808,3538.5
0.00115198,3514.9
0.00116328,3498.08
0.00132007,3436.75
0.00160611,3354.0899999999997
0.00166593,3343.84
0.00168743,3351.8599999999997
0.0016955400000000002,3371.0499999999997
0.00169871,3389.7400000000002
0.0017016,3422.87
0.00170302,3451.21
0.0017044500000000001,3495.4900000000002
0.00170564,3554.8
0.0017064299999999999,3614.71
0.00170702,3677.4900000000002
0.00170762,3764.52
0.0017079500000000002,3829.89
0.0017082900000000001,3912.1
0.00170863,4018.12
0.00170888,4120.16
0.00170906,4211.52
0.00170926,4333.99
0.0017094100000000002,4449.12
0.00170956,4593.78
0.0017096499999999998,4713.38
0.0017097500000000001,4858.450000000001
0.0017098500000000002,5037.51
0.00170993,5200.86
0.00171,5395.93
0.00171008,5630.5
0.00171012,5813.44
0.00171017,6021.5
0.0017102200000000001,6258.46
0.00171027,6528.63
0.0017103200000000002,6836.86
0.00171037,7188.64
0.00171042,7590.099999999999
0.00171047,8047.990000000001
0.00171051,8432.980000000001
0.0017105500000000001,8857.24
0.00171058,9292.310000000001
0.00171061,9768.039999999999
0.00171065,10288.0
0.00171068,10855.6
0.00171072,11475.0
0.00171075,12149.7
0.00171079,12884.1
0.00171082,13682.300000000001
0.00171086,14549.4
0.00171089,15489.3
0.00171093,16507.2
0.00171096,17607.5
0.001711,18796.0
0.00171103,20076.9
0.00171107,21455.7
0.0017111000000000001,22937.1
0.00171114,24645.3
0.0017111700000000001,26483.0
0.00171121,28457.0
0.0017112499999999999,30572.300000000003
0.00171129,32835.4
0.00171132,35250.8
0.00171137,38716.6
0.00171142,42471.3
0.00171147,46522.4
0.00171152,50651.1
0.00171156,54816.5
0.0017116100000000001,59228.7
0.00171167,66303.59999999999
0.00171174,73913.8
0.00171181,82025.40000000001
0.00171189,92492.40000000001
0.00171198,104976.0
0.00171211,123269.0
0.0017123,151381.0
0.00171242,167516.0
0.0017125200000000001,179250.0
0.0017125900000000002,187767.0
0.0017126600000000002,194140.0
0.0017127300000000002,200001.0
0.00171282,205067.00000000003
0.00171288,207750.0
0.0017129600000000001,209507.99999999997
0.0017130000000000001,209780.0
0.0017130700000000001,209078.0
0.00171315,206758.0
0.00171322,203252.0
0.00171327,199452.0
0.00171334,193660.0
0.00171341,187244.0
0.00171349,178184.0
0.00171359,166330.0
0.0017137,151220.0
0.001714,107392.0
0.0017141,94298.3
0.00171417,84357.29999999999
0.00171425,74993.2
0.0017143100000000001,68393.3
0.00171436,62987.1
0.00171441,57879.899999999994
0.00171445,53075.200000000004
0.0017144999999999999,48576.3
0.00171455,44379.799999999996
0.0017146,40483.5
0.00171465,36879.6
0.0017147,33560.3
0.00171474,31249.600000000002
0.00171478,29088.699999999997
0.00171481,27071.100000000002
0.00171485,25191.6
0.0017148900000000002,23443.6
0.0017149300000000001,21821.600000000002
0.0017149600000000002,20318.999999999996
0.0017150000000000002,18930.3
0.00171504,17648.0
0.0017150700000000002,16467.2
0.00171511,15398.400000000001
0.00171515,14447.5
0.00171518,13571.800000000001
0.00171522,12766.599999999999
0.00171525,12027.000000000002
0.00171529,11348.9
0.00171532,10727.199999999999
0.00171536,10158.5
0.00171539,9638.439999999999
0.00171543,9163.5
0.0017154700000000002,8594.150000000001
0.00171552,8090.56
0.00171557,7645.86
0.00171562,7253.33
0.00171566,6907.13
0.00171571,6601.72
0.00171576,6332.37
0.0017158,6094.64
0.00171585,5884.7300000000005
0.0017159,5689.879999999999
0.00171597,5440.48
0.0017160500000000002,5233.61
0.0017161200000000002,5060.84
0.0017162,4915.530000000001
0.0017163,4755.26
0.0017163900000000001,4624.4
0.0017164900000000002,4515.7
0.00171664,4383.02
0.00171682,4257.46
0.0017170000000000002,4156.91
0.00171724,4049.3100000000004
0.00171747,3963.01
0.00171779,3871.2
0.00171819,3782.7099999999996
0.00171858,3714.57
0.00171918,3638.0699999999997
0.0017199700000000001,3566.9300000000003
0.00172076,3517.59
0.00172179,3473.0699999999997
0.0017235899999999999,3424.8599999999997
0.00172591,3390.4
0.00172884,3366.6
0.00173529,3342.8300000000004
0.00175099,3324.7
0.00185552,3295.23
0.00221011,3230.76
0.0022238699999999998,3236.9900000000002
0.00222723,3247.9399999999996
0.00222899,3263.63
0.00223017,3287.28
0.00223091,3319.56
0.0022312,3344.91
0.0022314500000000003,3381.64
0.0022316600000000003,3432.68
0.00223181,3492.33
0.00223192,3547.32
0.00223202,3618.83
0.00223212,3711.57
0.0022322099999999997,3812.32
0.0022322799999999997,3914.52
0.00223236,4036.29
0.00223243,4180.780000000001
0.0022325,4351.45
0.00223258,4552.05
0.00223265,4786.59
0.00223271,4987.3
0.00223276,5211.26
0.00223282,5460.5
0.00223287,5736.74
0.00223293,6041.9
0.00223298,6377.74
0.00223304,6746.0599999999995
0.0022330899999999996,7148.42
0.00223315,7586.32
0.0022332000000000003,8060.85
0.00223326,8573.33
0.00223331,9124.19
0.0022333699999999997,9734.38
0.00223343,10429.699999999999
0.0022335099999999997,11429.0
0.00223359,12508.2
0.00223368,13661.6
0.00223379,15339.9
0.00223393,17721.0
0.00223421,22378.8
0.00223435,24573.800000000003
0.0022344599999999997,26071.8
0.00223455,27183.3
0.00223463,28138.3
0.00223472,28913.899999999998
0.00223481,29490.9
0.0022348900000000002,29822.7
0.00223497,29982.8
0.002235,29998.0
0.00223508,29903.5
0.00223516,29614.1
0.00223523,29231.3
0.0022353200000000003,28509.000000000004
0.0022354,27762.899999999998
0.00223549,26740.0
0.00223558,25571.3
0.00223569,23900.800000000003
0.00223585,21269.399999999998
0.0022361200000000003,16853.7
0.00223623,15091.300000000001
0.0022363400000000003,13429.7
0.00223644,12041.800000000001
0.00223652,11041.8
0.00223659,10115.6
0.00223667,9265.34
0.00223675,8491.369999999999
0.0022368,8017.340000000001
0.0022368600000000002,7485.75
0.00223692,7055.61
0.00223697,6660.78
0.00223703,6299.509999999999
0.0022370800000000002,5970.39
0.0022371400000000003,5671.56
0.00223719,5401.25
0.00223725,5157.530000000001
0.0022373,4938.62
0.00223734,4805.51
0.00223741,4567.66
0.0022374900000000004,4364.06
0.0022375600000000004,4190.76
0.00223763,4043.95
0.00223771,3920.1800000000003
0.00223778,3816.25
0.00223786,3729.33
0.0022379699999999997,3625.33
0.00223807,3553.5
0.00223819,3485.44
0.00223832,3435.96
0.0022385,3385.5400000000004
0.00223875,3345.18
0.002239,3321.13
0.00223959,3290.56
0.00224077,3262.81
0.00224348,3240.05
0.00224991,3227.08
0.0023351,3208.23
0.0030813999999999998,3105.31
0.00314133,3100.6200000000003
0.00317104,3108.26
0.0031802700000000002,3123.8
0.0031856700000000003,3150.78
0.00318819,3178.1000000000004
0.00319032,3220.69
0.00319175,3270.57
0.0031926899999999998,3322.91
0.0031934100000000003,3379.98
0.00319388,3431.66
0.00319428,3488.69
0.00319462,3549.18
0.0031949500000000002,3628.91
0.0031952,3709.19
0.00319536,3778.08
0.00319551,3851.3799999999997
0.00319568,3969.2799999999997
0.0031958000000000004,4070.2299999999996
0.00319592,4195.41
0.00319601,4309.51
0.0031961,4445.02
0.0031961900000000002,4606.5
0.0031962799999999997,4799.280000000001
0.00319636,5029.7
0.0031964199999999997,5207.79
0.0031964800000000002,5408.33
0.0031965400000000003,5634.01
0.0031966,5887.780000000001
0.00319666,6172.889999999999
0.00319672,6492.83
0.00319678,6851.37
0.00319684,7252.55
0.0031969,7700.75
0.00319696,8200.58
0.00319702,8756.869999999999
0.00319708,9374.73
0.0031971400000000002,10059.499999999998
0.0031972000000000003,10816.8
0.00319725,11652.3
0.00319731,12571.699999999999
0.00319738,13634.0
0.0031974300000000002,14542.699999999999
0.00319747,15519.9
0.00319752,16569.4
0.00319757,17693.600000000002
0.00319764,19314.6
0.0031977000000000004,21081.3
0.00319777,22999.6
0.00319783,25074.7
0.00319789,27206.100000000002
0.00319795,29375.300000000003
0.0031980100000000003,31681.9
0.00319807,34126.3
0.0031981600000000002,38049.8
0.0031982499999999997,42275.200000000004
0.00319834,46787.5
0.0031984400000000003,52059.0
0.00319856,59041.49999999999
0.00319873,69361.7
0.0031990300000000003,87974.4
0.0031991700000000003,96359.3
0.0031993100000000003,103580.99999999999
0.00319942,109249.0
0.0031995200000000004,113243.99999999999
0.00319962,116829.0
0.0031997300000000005,119943.0
0.00319982,121661.0
0.0031999100000000003,122754.99999999999
0.0032,123115.0
0.0032000799999999997,122795.00000000001
0.00320017,121742.0
0.0032002600000000003,120148.00000000001
0.0032003599999999998,117292.0
0.00320046,114066.0
0.00320056,110042.0
0.00320067,104424.99999999999
0.00320081,97293.2
0.00320095,88970.7
0.00320133,65574.4
0.00320147,57114.3
0.00320159,50440.7
0.00320167,46023.6
0.00320176,41552.8
0.00320185,37373.0
0.00320194,33495.5
0.003202,31082.5
0.00320206,28807.5
0.0032021199999999997,26669.6
0.00320218,24666.899999999998
0.0032022400000000003,22797.100000000002
0.00320229,21056.9
0.00320235,19442.1
0.00320241,17948.2
0.00320247,16570.2
0.00320253,15302.800000000001
0.00320259,14140.3
0.0032026500000000005,13076.9
0.00320271,12106.8
0.00320277,11224.099999999999
0.0032028300000000003,10422.9
0.00320289,9697.51
0.00320295,9042.23
0.00320301,8451.62
0.00320307,7920.39
0.0032031200000000003,7443.53
0.0032031800000000003,7016.33
0.00320324,6634.280000000001
0.0032033,6293.14
0.00320336,5988.98
0.00320342,5718.16
0.00320348,5477.280000000001
0.00320354,5263.21
0.0032036,5073.1
0.00320369,4827.28
0.0032037800000000003,4621.79
0.00320387,4449.93
0.00320396,4305.98
0.00320404,4185.11
0.00320416,4052.9500000000003
0.00320428,3946.92
0.0032044,3860.95
0.00320454,3780.9
0.00320469,3708.4199999999996
0.00320492,3624.55
0.00320523,3542.2799999999997
0.00320554,3480.62
0.00320593,3420.6400000000003
0.0032064,3365.61
0.0032071200000000004,3306.0
0.00320806,3252.42
0.00320949,3202.4300000000003
0.00321148,3162.78
0.0032139700000000005,3135.84
0.00321935,3109.6
0.00322808,3094.54
0.00326342,3080.5600000000004
0.00371732,3007.69
0.00392778,2956.27
0.004054540000000001,2907.29
0.004140049999999999,2855.8599999999997
0.00419509,2806.6
0.0042369899999999995,2753.32
0.004268,2698.9700000000003
0.00429285,2640.52
0.004310100000000001,2588.0899999999997
0.00432571,2528.41
0.00434132,2452.0
0.00435199,2385.98
0.00436185,2311.2200000000003
0.00436925,2243.37
0.00437664,2162.19
0.00438157,2098.59
0.0043865,2025.4500000000003
0.00439143,1940.46
0.004395120000000001,1867.15
0.0043988199999999995,1783.86
0.00440252,1688.54
0.00440498,1616.8899999999999
0.00440724,1544.6100000000001
0.004409290000000001,1472.6699999999998
0.00441135,1394.02
0.0044134000000000005,1307.82
0.0044154,1215.62
0.00441735,1117.1599999999999
0.00441882,1037.24
0.00442028,951.806
0.0044217399999999995,860.713
0.00442326,760.535
0.0044248000000000004,653.135
0.00442778,438.079
0.00442849,387.933
0.0044290300000000005,352.025
0.00442946,325.327
0.00442982,303.692
0.00443019,283.721
0.00443055,265.808
0.0044307999999999995,255.238
0.004431040000000001,245.954
0.00443128,238.322
0.0044315100000000005,232.415
0.00443174,228.206
0.00443192,226.29700000000003
0.00443209,225.57399999999998
0.00443227,226.208
0.00443245,228.39900000000003
0.00443257,230.802
0.00443271,234.764
0.00443286,239.993
0.004433,246.59300000000002
0.0044331100000000005,252.651
0.00443326,262.291
0.0044334100000000005,273.625
0.0044335500000000005,286.52799999999996
0.0044336900000000005,300.434
0.00443382,316.229
0.004433950000000001,332.18899999999996
0.00443407,349.919
0.00443419,370.425
0.00443433,395.101
0.00443447,422.59399999999994
0.00443461,455.869
0.0044347200000000005,481.19500000000005
0.00443482,508.526
0.00443497,551.1899999999999
0.0044351,593.3670000000001
0.00443523,639.667
0.00443536,690.441
0.004435489999999999,746.087
0.00443562,807.032
0.00443576,877.895
0.0044359,955.873
0.0044360400000000005,1041.69
0.0044361800000000005,1136.13
0.00443631,1240.1100000000001
0.00443644,1345.76
0.00443657,1456.5300000000002
0.00443669,1577.3500000000001
0.00443681,1709.25
0.00443694,1853.33
0.00443706,2010.91
0.00443718,2183.42
0.00443731,2372.52
0.00443743,2580.07
0.00443755,2808.22
0.0044376699999999995,3059.39
0.0044378,3336.49
0.004437920000000001,3642.67
0.004438,3864.79
0.00443809,4102.78
0.004438170000000001,4357.96
0.00443825,4631.910000000001
0.00443833,4926.2300000000005
0.00443841,5242.88
0.004438500000000001,5583.8
0.00443858,5951.29
0.00443866,6347.76
0.00443874,6776.049999999999
0.00443882,7239.06
