E(MeV),xs(mb)
1.0e-11,5.98574e6
1.03223e-11,5.89157e6
1.06549e-11,5.79892e6
1.0998399999999998e-11,5.70769e6
1.13527e-11,5.61793e6
1.1718599999999999e-11,5.52955e6
1.2096199999999998e-11,5.44259e6
1.24861e-11,5.35697e6
1.2888399999999999e-11,5.27273e6
1.3303799999999998e-11,5.18979e6
1.37325e-11,5.10818e6
1.41751e-11,5.02782e6
1.4631799999999997e-11,4.94876e6
1.51034e-11,4.87092e6
1.5590099999999998e-11,4.79432e6
1.6092599999999998e-11,4.71891e6
1.66111e-11,4.64471e6
1.71465e-11,4.57165e6
1.7699e-11,4.49977e6
1.8269399999999998e-11,4.42899e6
1.88581e-11,4.35935e6
1.94659e-11,4.29079e6
2.00931e-11,4.22332e6
2.0740699999999998e-11,4.1569000000000005e6
2.1408999999999998e-11,4.09154e6
2.2099099999999997e-11,4.0271999999999995e6
2.28111e-11,3.96388e6
2.3546399999999998e-11,3.90155e6
2.4305099999999997e-11,3.84021e6
2.50884e-11,3.77982e6
2.5896799999999997e-11,3.7204e6
2.67315e-11,3.66189e6
2.75928e-11,3.60433e6
2.8482199999999998e-11,3.54765e6
2.93999e-11,3.49188e6
3.0347499999999995e-11,3.43698e6
3.13253e-11,3.38295e6
3.2335e-11,3.32977e6
3.33769e-11,3.27743e6
3.44526e-11,3.2259e6
3.55627e-11,3.1752e6
3.67089e-11,3.12528e6
3.7891799999999997e-11,3.07616e6
3.9113e-11,3.02781e6
4.0373400000000003e-11,2.98022e6
4.1674599999999996e-11,2.93338e6
4.3017399999999996e-11,2.88728e6
4.440389999999999e-11,2.8419e6
4.58347e-11,2.79724e6
4.7311899999999994e-11,2.75328e6
4.883639999999999e-11,2.71002e6
5.0410399999999995e-11,2.66743e6
5.20348e-11,2.62552e6
5.37119e-11,2.58426e6
5.54426e-11,2.54366e6
5.7229499999999995e-11,2.5037e6
5.907359999999999e-11,2.46437e6
6.09775e-11,2.42565e6
6.29424e-11,2.38755e6
6.497099999999999e-11,2.35004e6
6.70645e-11,2.31313e6
6.9226e-11,2.27679e6
7.145659999999999e-11,2.24104e6
7.37596e-11,2.20584e6
7.61364e-11,2.1712e6
7.85902e-11,2.1371e6
8.11227e-11,2.10355e6
8.37372e-11,2.07051e6
8.643549999999999e-11,2.0380099999999998e6
8.922119999999998e-11,2.0060099999999998e6
9.209619999999999e-11,1.97452e6
9.506439999999999e-11,1.94352e6
9.81277e-11,1.91301e6
1.01291e-10,1.88298e6
1.04554e-10,1.85343e6
1.07924e-10,1.82434e6
1.11402e-10,1.79572e6
1.1499200000000001e-10,1.76753e6
1.1869700000000001e-10,1.73981e6
1.22523e-10,1.7125e6
1.26471e-10,1.68564e6
1.30547e-10,1.6592e6
1.34754e-10,1.63318e6
1.3909700000000002e-10,1.60756e6
1.43579e-10,1.58235e6
1.48207e-10,1.55753e6
1.52982e-10,1.53311e6
1.57913e-10,1.50907e6
1.6300100000000001e-10,1.48542e6
1.68254e-10,1.46213e6
1.73676e-10,1.43921e6
1.79274e-10,1.41665e6
1.8505000000000002e-10,1.39446e6
1.91014e-10,1.3726e6
1.97169e-10,1.3511e6
2.03524e-10,1.32993e6
2.1008200000000003e-10,1.3091e6
2.16853e-10,1.28859e6
2.2384e-10,1.26842e6
2.31055e-10,1.24855e6
2.385e-10,1.229e6
2.46187e-10,1.20976e6
2.5412e-10,1.19083e6
2.6231e-10,1.17219e6
2.70762e-10,1.15384e6
2.7948900000000003e-10,1.13579e6
2.88494e-10,1.11802e6
2.9779300000000004e-10,1.10053e6
3.07388e-10,1.08331e6
3.1729500000000004e-10,1.06637e6
3.27519e-10,1.0497e6
3.38075e-10,1.03328e6
3.4896900000000003e-10,1.0171300000000001e6
3.6021600000000004e-10,1.0012300000000001e6
3.7182300000000004e-10,985588.0000000001
3.83807e-10,970186.0
3.96174e-10,955030.0
4.08943e-10,940110.9999999999
4.2212e-10,925430.0000000001
4.3572499999999996e-10,910976.9999999999
4.4976500000000005e-10,896756.0000000001
4.6426100000000007e-10,882756.0
4.79221e-10,868980.0
4.94666e-10,855418.0
5.10605e-10,842074.0
5.270620000000001e-10,828937.0
5.440450000000001e-10,816010.0
5.6158e-10,803285.0
5.796750000000001e-10,790763.0
5.98358e-10,778437.0
6.176389999999999e-10,766307.0
6.37545e-10,754366.0
6.58089e-10,742616.0
6.79298e-10,731050.0
7.01188e-10,719668.0
7.237860000000001e-10,708464.0
7.47109e-10,697439.0
7.71188e-10,686586.0
7.960380000000001e-10,675906.0
8.21693e-10,665392.0
8.48171e-10,655047.0
8.75507e-10,644864.0
9.037190000000002e-10,634842.0
9.32845e-10,624978.0
9.62904e-10,615271.0
9.93937e-10,605716.0
1.0259700000000001e-9,596313.0
1.05903e-9,587057.0
1.09316e-9,577949.0
1.12839e-9,568983.0
1.16475e-9,560161.0
1.2022900000000002e-9,551476.0
1.2410300000000002e-9,542931.0
1.28103e-9,534518.0
1.3223100000000002e-9,526241.0
1.36492e-9,518092.00000000006
1.4089000000000002e-9,510074.0
1.4543100000000001e-9,502181.00000000006
1.5011699999999999e-9,494414.99999999994
1.5495600000000002e-9,486770.0
1.5994900000000002e-9,479247.0
1.6510400000000001e-9,471842.0
1.7042400000000001e-9,464555.0
1.75917e-9,457382.00000000006
1.81585e-9,450324.0
1.87438e-9,443377.0
1.9347700000000003e-9,436541.0
1.99713e-9,429812.0
2.06148e-9,423190.00000000006
2.1279200000000002e-9,416673.0
2.19649e-9,410259.0
2.26728e-9,403946.0
2.3403400000000002e-9,397735.0
2.4157700000000002e-9,391620.0
2.49362e-9,385604.0
2.5739800000000002e-9,379682.0
2.65692e-9,373855.0
2.7425500000000002e-9,368120.0
2.8309300000000003e-9,362476.0
2.92217e-9,356921.0
3.01633e-9,351455.0
3.11354e-9,346076.0
3.21387e-9,340782.0
3.3174500000000004e-9,335571.0
3.42435e-9,330445.0
3.53471e-9,325398.0
3.6486100000000003e-9,320433.0
3.7662000000000005e-9,315546.0
3.88757e-9,310738.0
4.01286e-9,306005.0
4.14217e-9,301348.0
4.2756600000000005e-9,296765.0
4.41344e-9,292256.0
4.55568e-9,287818.0
4.7024800000000005e-9,283451.0
4.85404e-9,279153.0
5.01045e-9,274925.0
5.17193e-9,270763.0
5.338590000000001e-9,266669.0
5.510650000000001e-9,262640.0
5.688220000000001e-9,258675.0
5.871540000000001e-9,254774.0
6.06075e-9,250935.0
6.256080000000001e-9,247158.0
6.4576700000000005e-9,243441.00000000003
6.665790000000001e-9,239784.0
6.8805900000000005e-9,236185.0
7.1023400000000005e-9,232643.99999999997
7.33121e-9,229160.0
7.56748e-9,225732.0
7.81133e-9,222359.00000000003
8.06308e-9,219040.0
8.32291e-9,215774.0
8.59114e-9,212561.0
8.86798e-9,209401.0
9.15378e-9,206291.0
9.44875e-9,203232.0
9.753270000000001e-9,200220.99999999997
1.0067600000000001e-8,197261.0
1.0392e-8,194347.0
1.07269e-8,191482.0
1.10726e-8,188663.0
1.1429400000000001e-8,185890.0
1.17978e-8,183162.0
1.21779e-8,180479.0
1.25704e-8,177839.0
1.29755e-8,175242.0
1.33937e-8,172688.0
1.3825300000000001e-8,170175.0
1.42708e-8,167704.0
1.4730700000000002e-8,165273.0
1.52054e-8,162882.0
1.5728700000000002e-8,160374.0
1.62699e-8,157912.0
1.6829799999999998e-8,155492.0
1.7408900000000002e-8,153115.0
1.8008e-8,150780.0
1.86276e-8,148487.0
1.92686e-8,146235.0
1.9931700000000003e-8,144022.0
2.06176e-8,141850.0
2.1327e-8,139716.0
2.2060900000000003e-8,137620.0
2.28201e-8,135563.0
2.3605299999999998e-8,133542.0
2.44176e-8,131558.0
2.52522e-8,129623.0
2.5299999999999998e-8,129515.0
2.61706e-8,127604.0
2.7071200000000002e-8,125728.0
2.80027e-8,123886.99999999999
2.8966300000000002e-8,122079.0
2.99631e-8,120305.0
3.09942e-8,118563.0
3.20607e-8,116853.99999999999
3.31639e-8,115175.99999999999
3.43052e-8,113530.0
3.54856e-8,111914.0
3.67067e-8,110330.0
3.79699e-8,108775.0
3.9276399999999996e-8,107251.00000000001
4.0628000000000005e-8,105755.0
4.20261e-8,104289.00000000001
4.3472200000000005e-8,102851.0
4.4968199999999994e-8,101441.0
4.65156e-8,100060.0
4.8116199999999996e-8,98705.3
4.9771900000000005e-8,97378.2
5.14847e-8,96077.99999999999
5.325630000000001e-8,94804.4
5.50889e-8,93557.0
5.69846e-8,92335.49999999999
5.8945499999999997e-8,91139.4
6.09739e-8,89968.40000000001
6.30721e-8,88822.4
6.53807e-8,87631.70000000001
6.777350000000001e-8,86468.79999999999
7.02543e-8,85333.2
7.282549999999999e-8,84224.9
7.54911e-8,83143.3
7.825400000000001e-8,82088.5
8.11183e-8,81060.2
8.40871e-8,80058.4
8.716490000000001e-8,79083.0
9.035510000000001e-8,78133.7
9.36623e-8,77209.8
9.70902e-8,76311.2
1.00644e-7,75437.8
1.0432699999999999e-7,74590.1
1.0814600000000001e-7,73767.7
1.12104e-7,72970.8
1.1620699999999999e-7,72199.40000000001
1.2046099999999998e-7,71453.5
1.2486999999999998e-7,70733.1
1.2944e-7,70038.5
1.34178e-7,69369.6
1.3938299999999997e-7,68689.7
1.4479e-7,68039.2
1.50408e-7,67418.5
1.5624299999999998e-7,66827.8
1.62304e-7,66267.9
1.68601e-7,65739.7
1.75142e-7,65243.1
1.81936e-7,64778.1
1.8899399999999998e-7,64345.9
1.9632599999999998e-7,63947.700000000004
2.03943e-7,63584.4
2.11855e-7,63257.3
2.2007400000000002e-7,62967.700000000004
2.2861199999999998e-7,62716.9
2.37481e-7,62506.6
2.46694e-7,62338.7
2.55722e-7,62220.899999999994
2.6508299999999997e-7,62144.700000000004
2.74784e-7,62112.299999999996
2.7711800000000003e-7,62111.4
2.87268e-7,62136.6
2.97783e-7,62211.5
3.0803e-7,62330.50000000001
3.18629e-7,62499.799999999996
3.29594e-7,62722.3
3.40936e-7,63002.1
3.5192199999999994e-7,63320.2
3.63264e-7,63696.5
3.7497e-7,64135.4
3.8623599999999994e-7,64606.0
3.9784099999999994e-7,65140.3
4.0892899999999997e-7,65698.0
4.20325e-7,66319.7
4.3204099999999997e-7,67010.9
4.43144e-7,67715.4
4.54532e-7,68489.3
4.6522699999999996e-7,69264.5
4.7617599999999996e-7,70108.0
4.87381e-7,71025.0
4.97796e-7,71927.9
5.08434e-7,72902.1
5.192999999999999e-7,73953.3
5.29278e-7,74970.7
5.39446e-7,76060.6
5.49812e-7,77229.40000000001
5.59191e-7,78339.3
5.68731e-7,79521.2
5.78434e-7,80780.6
5.88302e-7,82123.4
5.97073e-7,83371.9
6.059779999999999e-7,84694.5
6.15013e-7,86095.90000000001
6.24185e-7,87582.6
6.334909999999999e-7,89160.29999999999
6.4158e-7,90591.1
6.49771e-7,92099.4
6.58068e-7,93690.4
6.664699999999999e-7,95369.4
6.749789999999999e-7,97142.59999999999
6.82155e-7,98697.59999999999
6.89404e-7,100327.00000000001
6.967329999999999e-7,102037.0
7.041369999999999e-7,103830.0
7.11622e-7,105715.0
7.19184e-7,107695.99999999999
7.2683e-7,109780.00000000001
7.345539999999999e-7,111972.99999999999
7.40793e-7,113813.00000000001
7.47085e-7,115731.0
7.53431e-7,117734.0
7.598309999999999e-7,119827.0
7.66285e-7,122013.0
7.72793e-7,124300.00000000001
7.79357e-7,126694.0
7.85977e-7,129201.00000000001
7.926529999999999e-7,131828.0
7.97699e-7,133883.0
8.027739999999999e-7,136013.0
8.078839999999999e-7,138223.0
8.13024e-7,140516.0
8.18199e-7,142898.0
8.23404e-7,145371.0
8.28646e-7,147943.0
8.339169999999999e-7,150616.0
8.39226e-7,153399.0
8.44565e-7,156295.0
8.499409999999999e-7,159313.0
8.55348e-7,162457.0
8.607929999999999e-7,165738.0
8.66269e-7,169160.0
8.71784e-7,172735.0
8.7733e-7,176469.0
8.829149999999999e-7,180377.0
8.88532e-7,184463.0
8.922969999999999e-7,187294.0
8.960789999999999e-7,190215.0
8.99876e-7,193229.0
9.036899999999999e-7,196341.0
9.0752e-7,199554.0
9.113659999999999e-7,202873.0
9.152279999999999e-7,206303.0
9.191069999999999e-7,209850.0
9.230019999999999e-7,213518.0
9.269139999999999e-7,217313.0
9.308419999999999e-7,221241.99999999997
9.34787e-7,225312.0
9.387489999999999e-7,229528.0
9.42727e-7,233897.99999999997
9.467219999999998e-7,238431.00000000003
9.507339999999998e-7,243134.0
9.547639999999998e-7,248016.0
9.5881e-7,253086.0
9.628729999999998e-7,258354.00000000003
9.66954e-7,263832.0
9.71052e-7,269530.0
9.75167e-7,275460.0
9.78267e-7,280071.0
9.81375e-7,284824.0
9.84492e-7,289726.0
9.87618e-7,294782.0
9.90757e-7,300008.0
9.939049999999998e-7,305403.0
9.97062e-7,310974.0
1.00023e-6,316729.0
1.0034099999999999e-6,322686.0
1.00624e-6,328146.0
1.00978e-6,335193.0
1.01332e-6,342489.0
1.01687e-6,350045.0
1.02043e-6,357931.0
1.02403e-6,366166.0
1.0276199999999998e-6,374710.0
1.0312099999999998e-6,383580.0
1.0348299999999998e-6,392857.0
1.03847e-6,402567.0
1.0421199999999999e-6,412668.00000000006
1.04576e-6,423177.99999999994
1.04943e-6,434199.99999999994
1.05313e-6,445767.0
1.0568200000000001e-6,457832.0
1.0605199999999998e-6,470421.0
1.06424e-6,483661.00000000006
1.0679799999999999e-6,497598.0
1.07079e-6,508470.0
1.0736e-6,519719.99999999994
1.07641e-6,531367.0
1.07925e-6,543543.0
1.0821e-6,556222.0
1.08495e-6,569369.0
1.0878e-6,583009.0
1.0906499999999999e-6,597165.0
1.0935099999999998e-6,611933.0
1.0964e-6,627425.0
1.0992900000000002e-6,643533.0
1.1021799999999999e-6,660293.0
1.10507e-6,677737.0
1.10796e-6,695905.0
1.1109e-6,715108.0
1.11383e-6,735140.0
1.11676e-6,756048.0
1.11969e-6,777884.0
1.12262e-6,800702.0000000001
1.12558e-6,824790.0
1.12855e-6,850123.0
1.13152e-6,876662.9999999999
1.13449e-6,904486.0
1.13747e-6,933672.0
1.14034e-6,963306.0
1.1430299999999999e-6,992280.0
1.14572e-6,1.0225900000000001e6
1.1484e-6,1.05432e6
1.1510899999999998e-6,1.08756e6
1.1537699999999999e-6,1.1224e6
1.1559399999999999e-6,1.15171e6
1.1580999999999998e-6,1.18217e6
1.16027e-6,1.21385e6
1.16243e-6,1.24682e6
1.16484e-6,1.28504e6
1.16724e-6,1.32503e6
1.16965e-6,1.36689e6
1.17205e-6,1.41073e6
1.17445e-6,1.45668e6
1.1768599999999999e-6,1.50487e6
1.1792599999999998e-6,1.55542e6
1.1816699999999999e-6,1.6085e6
1.1840699999999998e-6,1.66426e6
1.1864799999999999e-6,1.72287e6
1.1888799999999998e-6,1.78451e6
1.1912899999999999e-6,1.84937e6
1.1936899999999998e-6,1.91767e6
1.1960999999999999e-6,1.98962e6
1.1984999999999998e-6,2.06547e6
1.2009099999999999e-6,2.14546e6
1.20331e-6,2.22986e6
1.2057199999999999e-6,2.31897e6
1.20812e-6,2.41307e6
1.21053e-6,2.5125e6
1.21293e-6,2.61759e6
1.21534e-6,2.72868e6
1.21774e-6,2.84614e6
1.21954e-6,2.93866e6
1.22135e-6,3.03513e6
1.2231499999999999e-6,3.13574e6
1.22496e-6,3.24064e6
1.22676e-6,3.35001e6
1.2285600000000001e-6,3.464e6
1.2297599999999998e-6,3.54266e6
1.2321699999999998e-6,3.70655e6
1.2345699999999998e-6,3.87951e6
1.2369799999999998e-6,4.06189e6
1.2393799999999998e-6,4.25395e6
1.2417899999999998e-6,4.45593e6
1.2441899999999998e-6,4.66797e6
1.2465999999999998e-6,4.89013e6
1.249e-6,5.12235e6
1.2514099999999998e-6,5.36442e6
1.25381e-6,5.61598e6
1.2562199999999998e-6,5.87647e6
1.25982e-6,6.28227e6
1.26343e-6,6.70292e6
1.27485e-6,8.07058e6
1.27882e-6,8.52757e6
1.28147e-6,8.81689e6
1.28411e-6,9.08932e6
1.2867599999999999e-6,9.34087e6
1.2894e-6,9.56762e6
1.29181e-6,9.7491e6
1.29421e-6,9.90447e6
1.2960199999999999e-6,1.00025e7
1.29782e-6,1.00837e7
1.29979e-6,1.01525e7
1.3021e-6,1.02056e7
1.30441e-6,1.0228299999999998e7
1.3051799999999999e-6,1.0229e7
1.3071e-6,1.0216e7
1.30941e-6,1.01724e7
1.31172e-6,1.0099e7
1.3135699999999998e-6,1.00191e7
1.3157399999999998e-6,9.90319e6
1.3179e-6,9.76426e6
1.32006e-6,9.60394e6
1.32235e-6,9.41352e6
1.3247500000000001e-6,9.19208e6
1.32716e-6,8.95193e6
1.33077e-6,8.56312e6
1.33429e-6,8.1591e6
1.34015e-6,7.45605e6
1.3471900000000001e-6,6.60743e6
1.35065e-6,6.20277e6
1.35398e-6,5.82578e6
1.35732e-6,5.46443e6
1.3606499999999998e-6,5.12063e6
1.36287e-6,4.90181e6
1.3650999999999999e-6,4.69155e6
1.36732e-6,4.48993e6
1.36972e-6,4.28151e6
1.37213e-6,4.0831299999999995e6
1.37453e-6,3.89462e6
1.37694e-6,3.71573e6
1.37934e-6,3.54615e6
1.38175e-6,3.38555e6
1.38415e-6,3.23356e6
1.38656e-6,3.08979e6
1.38896e-6,2.95385e6
1.39137e-6,2.82535e6
1.39377e-6,2.70389e6
1.39618e-6,2.58908e6
1.39858e-6,2.48055e6
1.40099e-6,2.37794e6
1.40339e-6,2.28089e6
1.40579e-6,2.18909e6
1.4082e-6,2.1022e6
1.4106e-6,2.0199500000000002e6
1.4130100000000001e-6,1.94203e6
1.4154099999999999e-6,1.8682e6
1.41782e-6,1.79819e6
1.4202199999999999e-6,1.73178e6
1.4238299999999998e-6,1.63843e6
1.42744e-6,1.552e6
1.4310499999999998e-6,1.47186e6
1.4346499999999999e-6,1.39748e6
1.43826e-6,1.32834e6
1.44187e-6,1.26398e6
1.44547e-6,1.20401e6
1.44908e-6,1.14805e6
1.45269e-6,1.09577e6
1.4563e-6,1.0468599999999999e6
1.4599e-6,1.0010600000000001e6
1.4635100000000001e-6,958108.0
1.4671199999999998e-6,917792.0
1.4707199999999999e-6,879903.0
1.4743299999999998e-6,844258.0
1.47794e-6,810688.0
1.48275e-6,768893.0
1.48667e-6,737110.0
1.4905900000000001e-6,707223.0
1.4958199999999999e-6,670076.0
1.50105e-6,635738.0
1.50632e-6,603723.0
1.51162e-6,573837.0
1.5169299999999998e-6,546092.0
1.52223e-6,520292.0
1.52757e-6,496099.0
1.5329499999999999e-6,473389.0
1.53833e-6,452194.0
1.5437099999999998e-6,432383.0
1.54912e-6,413713.99999999994
1.55458e-6,396105.0
1.5600299999999999e-6,379595.0
1.56548e-6,364096.0
1.57098e-6,349427.0
1.5792699999999999e-6,328899.0
1.5875699999999999e-6,310135.0
1.5959399999999999e-6,292787.0
1.60436e-6,276796.0
1.61277e-6,262094.0
1.6212999999999998e-6,248366.0
1.6298399999999999e-6,235706.00000000003
1.63841e-6,223952.00000000003
1.6470599999999998e-6,212971.99999999997
1.65572e-6,202793.0
1.66445e-6,193253.0
1.67323e-6,184344.0
1.682e-6,176051.0
1.69387e-6,165724.0
1.7057299999999998e-6,156306.0
1.7177599999999998e-6,147578.0
1.7297899999999999e-6,139589.0
1.742e-6,132158.0
1.7541999999999999e-6,125330.99999999999
1.76657e-6,118960.0
1.77895e-6,113087.0
1.7915e-6,107589.0
1.80405e-6,102506.99999999999
1.81677e-6,97735.7
1.8294999999999998e-6,93312.9
1.84886e-6,87181.59999999999
1.8684e-6,81637.29999999999
1.8881199999999999e-6,76610.5
1.9080299999999998e-6,72032.7
1.92822e-6,67832.40000000001
1.9486e-6,63996.8
1.96917e-6,60487.6
1.9899299999999998e-6,57269.1
2.0109799999999998e-6,54300.8
2.0322399999999996e-6,51567.2
2.06091e-6,48241.8
2.0899899999999996e-6,45242.2
2.1194700000000002e-6,42530.5
2.1493699999999997e-6,40072.799999999996
2.1797e-6,37840.1
2.2104499999999997e-6,35807.1
2.24163e-6,33952.1
2.27326e-6,32255.899999999998
2.30533e-6,30702.0
2.33785e-6,29275.8
2.3708399999999996e-6,27964.600000000002
2.4042899999999997e-6,26757.0
2.45529e-6,25120.2
2.5074900000000003e-6,23661.9
2.5606799999999998e-6,22364.600000000002
2.61512e-6,21201.500000000004
2.6705899999999996e-6,20161.2
2.72737e-6,19226.9
2.7852299999999996e-6,18383.0
2.84445e-6,17618.100000000002
2.90478e-6,16927.1
2.98732e-6,16102.9
3.07221e-6,15376.2
3.15951e-6,14733.400000000001
3.2492899999999997e-6,14163.1
3.36519e-6,13537.4
3.48505e-6,12995.5
3.60936e-6,12523.3
3.73793e-6,12112.0
3.89838e-6,11685.8
4.06571e-6,11323.0
4.270139999999999e-6,10969.0
4.48463e-6,10678.8
4.71012e-6,10447.5
4.94671e-6,10276.099999999999
5.19544e-6,10172.8
5.337049999999999e-6,10154.7
5.52742e-6,10189.4
5.68449e-6,10289.2
5.805069999999999e-6,10430.5
5.88696e-6,10571.8
5.970019999999999e-6,10767.500000000002
6.03319e-6,10964.3
6.096949999999999e-6,11218.699999999999
6.1613199999999995e-6,11551.7
6.2046199999999996e-6,11832.800000000001
6.24824e-6,12176.0
6.292159999999999e-6,12599.7
6.32526e-6,12985.500000000002
6.35866e-6,13448.1
6.39207e-6,14002.5
6.4144899999999995e-6,14438.2
6.43708e-6,14939.800000000001
6.45966e-6,15516.9
6.48225e-6,16185.400000000001
6.50499e-6,16971.5
6.52217e-6,17656.0
6.5393499999999995e-6,18434.0
6.5565199999999995e-6,19323.399999999998
6.573699999999999e-6,20346.199999999997
6.59096e-6,21536.300000000003
6.60257e-6,22446.4
6.61418e-6,23459.9
6.625799999999999e-6,24593.1
6.63741e-6,25865.300000000003
6.64902e-6,27300.5
6.66064e-6,28927.6
6.669349999999999e-6,30295.2
6.67806e-6,31809.2
6.68723e-6,33587.0
6.69641e-6,35582.3
6.70559e-6,37832.2
6.714769999999999e-6,40382.2
6.72089e-6,42276.0
6.727e-6,44347.6
6.73418e-6,47034.0
6.741349999999999e-6,50039.6
6.748529999999999e-6,53416.1
6.75391e-6,56228.7
6.760489999999999e-6,60041.399999999994
6.76527e-6,63107.7
6.77005e-6,66452.8
6.7748299999999995e-6,70108.7
6.77962e-6,74111.2
6.7844e-6,78500.1
6.78918e-6,83319.4
6.793969999999999e-6,88617.6
6.79875e-6,94447.2
6.80353e-6,100865.0
6.80832e-6,107931.0
6.8131e-6,115709.0
6.817879999999999e-6,124262.99999999999
6.82266e-6,133658.0
6.827449999999999e-6,143955.0
6.83223e-6,155212.0
6.83701e-6,167479.0
6.8417999999999994e-6,180793.0
6.84658e-6,195175.0
6.851359999999999e-6,210628.0
6.85615e-6,227127.0
6.86332e-6,253714.0
6.8705e-6,282213.0
6.8824500000000005e-6,332490.0
6.8944099999999994e-6,383062.0
6.9015899999999994e-6,411609.0
6.9087599999999996e-6,437424.00000000006
6.9145e-6,455345.0
6.92024e-6,470253.00000000006
6.9250199999999995e-6,480036.00000000006
6.9298e-6,487181.0
6.93416e-6,491254.0
6.93947e-6,492976.0
6.9436799999999996e-6,491777.0
6.948459999999999e-6,487694.0
6.95324e-6,480814.0
6.95803e-6,471298.99999999994
6.96424e-6,455356.0
6.96998e-6,437531.0
6.97572e-6,417274.0
6.9829e-6,389410.0
6.99725e-6,329462.0
7.006809999999999e-6,289579.0
7.013989999999999e-6,261045.99999999997
7.0211599999999995e-6,234303.00000000003
7.02594e-6,217646.0
7.03073e-6,202001.0
7.03551e-6,187398.0
7.0402899999999995e-6,173844.0
7.045079999999999e-6,161324.0
7.04986e-6,149805.0
7.05464e-6,139243.0
7.059429999999999e-6,129586.0
7.06421e-6,120775.00000000001
7.06899e-6,112747.0
7.0737699999999995e-6,105441.0
7.07856e-6,98794.0
7.08334e-6,92747.49999999999
7.08812e-6,87245.00000000001
