E(MeV),xs(mb)
1.0e-11,50516.7
1.03223e-11,49730.2
1.06549e-11,48956.600000000006
1.0998399999999998e-11,48194.9
1.13527e-11,47445.700000000004
1.1718599999999999e-11,46708.100000000006
1.2096199999999998e-11,45982.6
1.24861e-11,45268.3
1.2888399999999999e-11,44565.700000000004
1.3303799999999998e-11,43874.1
1.37325e-11,43193.700000000004
1.41751e-11,42523.9
1.4631799999999997e-11,41865.1
1.51034e-11,41216.600000000006
1.5590099999999998e-11,40578.6
1.6092599999999998e-11,39950.700000000004
1.66111e-11,39333.0
1.71465e-11,38725.0
1.7699e-11,38126.9
1.8269399999999998e-11,37538.200000000004
1.88581e-11,36959.200000000004
1.94659e-11,36389.200000000004
2.00931e-11,35828.6
2.0740699999999998e-11,35276.8
2.1408999999999998e-11,34734.1
2.2099099999999997e-11,34199.9
2.28111e-11,33674.5
2.3546399999999998e-11,33157.4
2.4305099999999997e-11,32648.8
2.50884e-11,32148.2
2.5896799999999997e-11,31655.899999999998
2.67315e-11,31171.4
2.75928e-11,30694.8
2.8482199999999998e-11,30225.8
2.93999e-11,29764.6
3.0347499999999995e-11,29310.7
3.13253e-11,28864.3
3.2335e-11,28425.1
3.33769e-11,27993.100000000002
3.44526e-11,27568.0
3.55627e-11,27150.0
3.67089e-11,26738.6
3.7891799999999997e-11,26334.1
3.9113e-11,25936.1
4.0373400000000003e-11,25544.8
4.1674599999999996e-11,25159.699999999997
4.3017399999999996e-11,24781.1
4.440389999999999e-11,24408.6
4.58347e-11,24042.3
4.7311899999999994e-11,23681.899999999998
4.883639999999999e-11,23327.6
5.0410399999999995e-11,22979.1
5.20348e-11,22636.4
5.37119e-11,22299.3
5.54426e-11,21967.9
5.7229499999999995e-11,21641.9
5.907359999999999e-11,21321.4
6.09775e-11,21006.2
6.29424e-11,20696.4
6.497099999999999e-11,20391.6
6.70645e-11,20092.1
6.9226e-11,19797.5
7.145659999999999e-11,19507.9
7.37596e-11,19223.2
7.61364e-11,18943.3
7.85902e-11,18668.100000000002
8.11227e-11,18397.7
8.37372e-11,18131.8
8.643549999999999e-11,17870.5
8.922119999999998e-11,17613.600000000002
9.209619999999999e-11,17361.100000000002
9.506439999999999e-11,17113.0
9.81277e-11,16869.1
1.01291e-10,16629.5
1.04776e-10,16378.4
1.0838200000000001e-10,16132.0
1.1211100000000001e-10,15890.2
1.1596900000000002e-10,15652.900000000001
1.1996e-10,15420.0
1.24088e-10,15191.5
1.28358e-10,14967.3
1.32774e-10,14747.4
1.37343e-10,14531.6
1.4207e-10,14319.900000000001
1.46958e-10,14112.199999999999
1.52015e-10,13908.5
1.57246e-10,13708.800000000001
1.62657e-10,13512.900000000001
1.68254e-10,13320.7
1.74044e-10,13132.4
1.80033e-10,12947.699999999999
1.86229e-10,12766.599999999999
1.92637e-10,12589.1
1.9926600000000002e-10,12415.199999999999
2.06123e-10,12244.6
2.1321599999999998e-10,12077.500000000002
2.20553e-10,11913.800000000001
2.28142e-10,11753.3
2.35993e-10,11596.1
2.4411299999999997e-10,11442.1
2.52514e-10,11291.3
2.61203e-10,11143.6
2.70191e-10,10998.9
2.7948900000000003e-10,10857.300000000001
2.8971700000000003e-10,10710.0
3.0032199999999997e-10,10566.0
3.11313e-10,10425.3
3.22708e-10,10287.699999999999
3.3451900000000004e-10,10153.300000000001
3.46764e-10,10022.0
3.59454e-10,9893.66
3.72612e-10,9768.3
3.86248e-10,9645.9
4.0038600000000007e-10,9526.35
4.1504000000000005e-10,9409.64
4.30232e-10,9295.7
4.45977e-10,9184.5
4.6230200000000006e-10,9075.960000000001
4.80237e-10,8963.92
4.98867e-10,8854.78
5.182210000000001e-10,8748.49
5.38325e-10,8644.98
5.592100000000001e-10,8544.21
5.809040000000001e-10,8446.109999999999
6.0344e-10,8350.65
6.268510000000001e-10,8257.76
6.5117e-10,8167.400000000001
6.77861e-10,8074.7
7.056520000000001e-10,7984.68
7.34577e-10,7897.32
7.64692e-10,7812.509999999999
7.960380000000001e-10,7730.23
8.28673e-10,7650.400000000001
8.644690000000001e-10,7568.97
9.01812e-10,7490.12
9.40768e-10,7413.8099999999995
9.81407e-10,7339.95
1.0238000000000001e-9,7268.49
1.07028e-9,7195.97
1.1188800000000002e-9,7125.93
1.16969e-9,7058.32
1.2228000000000002e-9,6993.0599999999995
1.28103e-9,6927.139999999999
1.3420300000000002e-9,6863.64
1.40593e-9,6802.469999999999
1.47599e-9,6740.95
1.5495600000000002e-9,6681.8099999999995
1.62678e-9,6624.98
1.71146e-9,6568.030000000001
1.80056e-9,6513.39
1.89429e-9,6460.99
1.99713e-9,6408.67
2.10554e-9,6358.570000000001
2.2245400000000003e-9,6308.73
2.35026e-9,6261.08
2.4883500000000004e-9,6213.82
2.63455e-9,6168.72
2.7952400000000004e-9,6124.11
2.9657300000000003e-9,6081.599999999999
3.1532900000000004e-9,6039.679999999999
3.3598100000000002e-9,5998.4400000000005
3.5874100000000005e-9,5957.9800000000005
3.8304600000000004e-9,5919.6
4.09861e-9,5882.030000000001
4.39482e-9,5845.34
4.72241e-9,5809.599999999999
5.085180000000001e-9,5774.860000000001
5.487390000000001e-9,5741.16
5.93394e-9,5708.54
6.43042e-9,5677.030000000001
6.98321e-9,5646.650000000001
7.59955e-9,5617.4
8.30534e-9,5588.650000000001
9.09588e-9,5561.13
9.98277e-9,5534.84
1.1002600000000001e-8,5509.22
1.21779e-8,5484.37
1.3536e-8,5460.36
1.5077400000000002e-8,5437.68
1.69011e-8,5415.5
1.90257e-8,5394.3099999999995
2.15082e-8,5374.139999999999
2.4469300000000002e-8,5354.69
2.52522e-8,5350.2
2.5299999999999998e-8,5349.9400000000005
2.90277e-8,5331.45
3.35165e-8,5313.86
3.89456e-8,5297.21
4.5638800000000005e-8,5281.32
5.3936300000000004e-8,5266.26
6.442e-8,5251.929999999999
7.77593e-8,5238.400000000001
9.50588e-8,5225.61
1.1769099999999998e-7,5213.63
1.47885e-7,5202.429999999999
1.8939399999999998e-7,5191.900000000001
2.47215e-7,5182.14
3.30284e-7,5173.09
4.5356099999999997e-7,5164.75
6.42922e-7,5157.13
9.46701e-7,5150.2
2.1904499999999995e-6,5139.24
1.92131e-5,5123.55
0.00109481,4971.7
0.0029195799999999997,4756.59
0.00498261,4553.3099999999995
0.00731417,4361.95
0.0099468,4182.89
0.012937,4014.61
0.016404099999999998,3854.37
0.0203388,3704.83
0.0249079,3562.3300000000004
0.0304345,3420.23
0.0383376,3250.44
0.045460200000000006,3100.2900000000004
0.048441000000000005,3019.76
0.0503177,2949.81
0.0515873,2882.82
0.052470499999999996,2817.49
0.053132900000000004,2750.1099999999997
0.0536297,2682.2200000000003
0.054016,2612.86
0.054347200000000005,2535.75
0.0545956,2462.06
0.054816399999999994,2380.21
0.054981999999999996,2304.81
0.055119999999999995,2229.87
0.055258,2140.0
0.0553684,2054.29
0.0554512,1979.75
0.055534,1894.3000000000002
0.0556168,1795.4
0.055672,1720.3999999999999
0.055727200000000005,1636.75
0.0557824,1543.0
0.0558238,1464.75
0.055870699999999995,1366.8700000000001
0.05591770000000001,1257.83
0.055945299999999996,1187.6100000000001
0.0559729,1112.49
0.0560004,1032.09
0.056028,946.055
0.0560557,854.074
0.056083299999999996,755.971
0.0561039,678.4060000000001
0.0561281,583.864
0.0561557,471.388
0.0561985,293.531
0.0562109,243.275
0.0562212,202.868
0.0562281,177.053
0.056235,152.402
0.0562406,133.702
0.056245,119.523
0.0562494,106.149
0.0562527,96.7129
0.05625600000000001,87.8412
0.056259300000000005,79.58840000000001
0.0562618,73.8398
0.0562643,68.49929999999999
0.0562666,63.8559
0.056268700000000005,60.1027
0.0562708,56.6913
0.05627290000000001,53.64150000000001
0.0562749,50.973800000000004
0.056277,48.71000000000001
0.0562787,47.204800000000006
0.0562803,45.9851
0.056282,45.0634
0.056283599999999996,44.4534
0.056285100000000005,44.1796
0.0562859,44.1488
0.0562872,44.2736
0.0562884,44.5749
0.0562896,45.061600000000006
0.0562908,45.7394
0.056292,46.7013
0.0562934,48.0131
0.0562948,49.61750000000001
0.056296200000000005,51.525299999999994
0.0562976,53.748
0.0562989,56.2971
0.0563003,59.184599999999996
0.056301699999999996,62.4231
0.056302899999999996,65.6485
0.0563046,70.4246
0.056306300000000004,75.7664
0.0563079,81.699
0.0563096,88.24889999999999
0.056311200000000006,95.44309999999999
0.0563129,103.312
0.0563145,111.88499999999999
0.0563162,121.194
0.0563178,131.27100000000002
0.0563195,142.153
0.056321199999999995,153.875
0.0563228,166.476
0.056324500000000007,179.995
0.0563261,194.476
0.056327800000000004,209.961
0.056329500000000005,227.21
0.056331400000000004,247.18399999999997
0.05633320000000001,268.626
0.056335100000000006,291.61199999999997
0.056337000000000005,316.22499999999997
0.05633880000000001,342.54699999999997
0.0563409,373.914
0.056343,407.632
0.056345,443.843
0.056347100000000004,482.691
0.0563492,524.336
0.0563512,568.943
0.056353299999999995,616.6909999999999
0.0563554,667.767
0.0563575,722.382
0.05635950000000001,780.745
0.0563617,847.395
0.0563642,928.1650000000001
0.0563667,1015.5099999999999
0.0563692,1109.92
0.056371700000000004,1211.94
0.0563741,1322.13
0.056376600000000006,1441.1499999999999
0.0563791,1569.65
0.056381600000000004,1708.38
0.056384100000000006,1858.13
0.0563866,2019.7699999999998
0.056389100000000004,2194.2200000000003
0.0563915,2382.5099999999998
0.056394,2585.72
0.056396499999999995,2805.05
0.056399,3041.77
0.0564015,3297.27
0.056403999999999996,3573.0499999999997
0.0564064,3870.73
0.0564089,4192.05
0.0564114,4538.9
0.0564139,4913.26
0.0564164,5317.36
0.0564189,5753.4400000000005
0.0564213,6224.0
0.0564238,6731.639999999999
0.0564263,7279.12
0.0564288,7869.349999999999
0.056431300000000004,8505.34
0.0564338,9190.17
0.056436200000000006,9927.12
0.0564387,10719.300000000001
0.0564414,11619.0
0.0564443,12693.5
0.0564471,13856.599999999999
0.05645,15112.2
0.0564529,16463.3
0.0564558,17911.7
0.05645870000000001,19457.7
0.0564616,21099.3
0.0564655,23428.9
0.0564703,26538.8
0.0564768,30953.6
0.0564851,36631.0
0.0564892,39299.1
0.0564934,41731.4
0.0564964,43314.5
0.0564994,44693.7
0.05650260000000001,45868.399999999994
0.0565057,46786.5
0.056507699999999994,47250.9
0.056511,47745.9
0.0565144,47941.799999999996
0.0565149,47946.299999999996
0.0565186,47778.7
0.056521800000000004,47378.200000000004
0.056525,46770.6
0.0565293,45691.7
0.0565336,44373.2
0.05654,42098.1
0.056558500000000005,35022.4
0.056566000000000005,32367.7
0.056573399999999996,29934.9
0.056580899999999996,27738.999999999996
0.0565883,25773.8
0.0565938,24457.300000000003
0.0565994,23250.1
0.05660490000000001,22143.1
0.0566132,20651.600000000002
0.0566214,19338.4
0.0566297,18178.5
0.056638,17150.399999999998
0.0566463,16235.599999999999
0.056654600000000006,15418.5
0.056662800000000006,14685.699999999999
0.0566711,14026.099999999999
0.056682300000000005,13234.900000000001
0.056693600000000004,12532.5
0.0567049,11913.1
0.0567162,11364.0
0.05672920000000001,10809.2
0.0567437,10261.1
0.056758300000000005,9780.41
0.0567729,9356.72
0.0567879,8969.47
0.056803400000000004,8614.39
0.056818900000000006,8297.31
0.0568422,7881.68
0.056862899999999994,7562.05
0.056883600000000006,7280.83
0.056911199999999995,6954.799999999999
0.056938800000000005,6674.2699999999995
0.05696640000000001,6430.53
0.056993999999999996,6216.92
0.05703540000000001,5942.0
0.0570768,5710.42
0.05711820000000001,5513.25
0.0571638,5326.7699999999995
0.0572086,5168.72
0.0572693,4986.570000000001
0.0573314,4829.93
0.0574004,4683.25
0.057493600000000006,4519.49
0.057603999999999995,4363.450000000001
0.0577144,4237.36
0.0578524,4110.12
0.058018,3989.52
0.0582112,3878.88
0.0584596,3769.79
0.0587632,3669.3199999999997
0.0591219,3580.82
0.0595911,3495.75
0.060198299999999996,3416.93
0.0609711,3345.97
0.0620199,3278.93
0.0634551,3216.13
0.0654974,3155.2
0.06867140000000001,3091.16
0.0735772,3022.75
0.076057,2995.8999999999996
0.0762834,3002.96
0.0763327,3012.24
0.076372,3030.2799999999997
0.07639910000000001,3058.5499999999997
0.0764166,3095.1
0.0764271,3131.94
0.0764364,3183.35
0.0764426,3233.94
0.07644669999999999,3279.44
0.0764513,3345.7400000000002
0.07645500000000001,3418.75
0.0764574,3481.17
0.07645990000000001,3559.1
0.0764624,3658.56
0.0764642,3752.63
0.076466,3869.4500000000003
0.0764679,4016.66
0.076469,4126.95
0.0764701,4244.49
0.0764711,4380.34
0.0764722,4537.650000000001
0.0764732,4719.98
0.0764742,4931.26
0.0764753,5175.76
0.07647630000000001,5458.04
0.0764772,5722.1900000000005
0.07647820000000001,6074.0199999999995
0.0764792,6473.59
0.0764802,6924.5
0.0764813,7429.76
0.0764823,7991.27
0.0764833,8590.310000000001
0.0764842,9242.07
0.0764852,9944.11
0.0764862,10691.900000000001
0.0764877,11884.8
0.0764917,15308.699999999999
0.0764933,16552.4
0.0764943,17288.600000000002
0.0764954,17938.5
0.0764964,18490.3
0.0764975,18928.100000000002
0.0764986,19224.0
0.0764995,19357.4
0.0765,19382.600000000002
0.076501,19329.8
0.076502,19124.2
0.0765032,18741.8
0.0765043,18205.0
0.0765054,17603.100000000002
0.0765064,16907.9
0.0765075,16061.2
0.0765093,14617.4
0.0765126,11837.2
0.0765141,10662.3
0.0765151,9927.279999999999
0.076516,9238.300000000001
0.076517,8599.42
0.076518,8012.85
0.0765189,7544.5599999999995
0.07652,7003.15
0.0765207,6677.09
0.0765214,6377.7699999999995
0.07652250000000001,5975.900000000001
0.0765236,5626.35
0.0765246,5344.7300000000005
0.0765255,5136.28
0.0765266,4893.65
0.0765278,4686.27
0.0765289,4509.089999999999
0.0765301,4357.52
0.07653120000000001,4227.56
0.0765329,4065.7
0.07653470000000001,3928.93
0.0765365,3815.95
0.07653839999999999,3723.9
0.07654090000000001,3625.27
0.0765433,3546.8799999999997
0.076547,3455.8
0.0765507,3386.7400000000002
0.07655540000000001,3319.7000000000003
0.0765623,3250.6400000000003
0.0765691,3202.09
0.0765769,3162.15
0.076588,3123.05
0.0766058,3084.0299999999997
0.0766354,3049.73
0.0766772,3026.57
0.076751,3009.15
0.0769528,2994.52
0.078376,2973.05
0.07918180000000001,2966.0299999999997
0.0794185,2971.04
0.0795087,2982.65
0.0795651,3003.11
0.0795968,3027.86
0.0796214,3063.2799999999997
0.0796355,3096.1400000000003
0.0796485,3141.3700000000003
0.0796583,3190.66
0.07966680000000001,3250.21
0.07967450000000001,3326.85
0.0796797,3395.39
0.0796838,3464.56
0.0796885,3563.45
0.0796916,3646.2799999999997
0.07969470000000001,3747.3999999999996
0.0796975,3860.2599999999998
0.0797003,3999.81
0.0797024,4127.679999999999
0.0797046,4281.7699999999995
0.0797066,4467.58
0.079708,4611.27
0.0797094,4777.55
0.07971070000000001,4971.28
0.07971210000000001,5198.52
0.0797131,5395.330000000001
0.0797141,5618.79
0.07971510000000001,5873.2
0.0797161,6163.299999999999
0.0797172,6528.139999999999
0.0797181,6852.69
0.079719,7216.2300000000005
0.07971980000000001,7623.070000000001
0.0797207,8077.740000000001
0.0797216,8584.86
0.0797225,9149.0
0.07972330000000001,9774.609999999999
0.0797241,10339.199999999999
0.0797249,11065.199999999999
0.0797257,11858.900000000001
0.07972660000000001,12722.4
0.0797274,13656.8
0.0797283,14661.800000000001
0.0797294,16109.4
0.0797305,17671.8
0.0797317,19335.6
0.0797332,21796.3
0.0797364,26875.8
0.07973770000000001,28954.0
0.07973910000000001,30864.699999999997
0.0797403,32339.2
0.0797415,33578.8
0.0797426,34533.7
0.0797438,35174.4
0.0797446,35427.5
0.0797455,35541.0
0.0797465,35419.9
0.0797476,35030.700000000004
0.0797486,34378.700000000004
0.0797497,33485.0
0.0797507,32391.100000000002
0.07975170000000001,31152.600000000002
0.07975310000000001,29286.699999999997
0.0797547,26893.2
0.0797583,21154.899999999998
0.0797598,18844.399999999998
0.07976079999999999,17312.8
0.079762,15803.3
0.0797631,14410.6
0.079764,13446.400000000001
0.0797648,12552.2
0.0797655,11859.900000000001
0.0797662,11215.1
0.0797669,10616.300000000001
0.0797676,10061.9
0.0797683,9549.960000000001
0.07976899999999999,9078.4
0.0797697,8644.85
0.0797707,8100.97
0.0797715,7691.87
0.07977240000000001,7323.2
0.0797732,6991.31
0.0797737,6788.7300000000005
0.0797748,6423.9
0.0797759,6106.6900000000005
0.079777,5830.51
0.0797781,5589.44
0.07977920000000001,5378.389999999999
0.07978060000000001,5144.650000000001
0.079782,4945.2699999999995
0.0797835,4773.92
0.0797849,4625.6
0.079787,4437.66
0.0797891,4282.2699999999995
0.0797905,4193.01
0.0797933,4041.46
0.07979610000000001,3918.02
0.0797989,3815.8500000000004
0.0798018,3730.14
0.079806,3625.07
0.0798102,3541.19
0.0798166,3443.5699999999997
0.0798243,3355.72
0.0798328,3285.7799999999997
0.0798412,3233.7
0.0798553,3172.07
0.0798694,3130.02
0.0798905,3088.01
0.0799258,3047.16
0.07995390000000001,3027.67
0.0800103,3004.77
0.08011739999999999,2984.74
0.08039070000000001,2967.52
0.0816865,2947.27
0.0840166,2926.6299999999997
0.0842559,2931.62
0.0843243,2939.72
0.0843773,2955.67
0.0844132,2980.48
0.0844374,3013.88
0.0844515,3046.92
0.08446400000000001,3092.1
0.08447210000000001,3135.16
0.08448019999999999,3195.8
0.08448710000000001,3268.22
0.0844922,3342.5699999999997
0.0844956,3406.0299999999997
0.08449899999999999,3484.88
0.08450250000000001,3584.75
0.084505,3678.4300000000003
0.0845076,3793.9500000000003
0.08450970000000001,3909.42
0.08451180000000001,4050.0800000000004
0.08451320000000001,4161.53
0.08451460000000001,4290.47
0.084516,4440.37
0.08451739999999999,4615.47
0.0845187,4820.7300000000005
0.0845201,5053.200000000001
0.0845214,5325.21
0.08452230000000001,5531.74
0.0845232,5760.91
0.0845241,6014.8
0.084525,6295.650000000001
0.08452590000000001,6605.59
0.084527,6998.21
0.084528,7434.370000000001
0.08452899999999999,7916.52
0.08453,8446.39
0.08453110000000001,9024.95
0.0845321,9652.01
0.08453279999999999,10096.400000000001
0.0845341,11044.5
0.0845355,12063.2
0.0845374,13577.2
0.0845407,16236.8
0.0845422,17386.399999999998
0.0845436,18383.7
0.08454510000000001,19242.0
0.0845462,19794.7
0.08454729999999999,20223.300000000003
0.08454850000000001,20515.4
0.0845496,20662.8
0.0845501,20680.3
0.0845509,20645.600000000002
0.08455180000000001,20524.300000000003
0.0845528,20259.800000000003
0.0845539,19875.0
0.084555,19379.7
0.084556,18786.6
0.08455750000000001,17852.600000000002
0.0845589,16805.0
0.08456110000000001,15081.800000000001
0.08456419999999999,12629.6
0.0845655,11648.9
0.08456680000000001,10678.099999999999
0.08456820000000001,9782.310000000001
0.0845692,9164.09
0.0845702,8593.51
0.0845713,8070.43
0.08457229999999999,7594.11
0.0845733,7162.71
0.0845743,6773.900000000001
0.0845754,6424.839999999999
0.0845762,6163.389999999999
0.0845772,5881.34
0.0845783,5629.7300000000005
0.0845793,5405.52
0.08458030000000001,5205.83
0.08458180000000001,4946.37
0.0845833,4727.7300000000005
0.08458460000000001,4568.38
0.0845862,4402.009999999999
0.0845878,4260.64
0.08458940000000001,4139.69
0.0845918,3988.62
0.0845941,3865.8
0.0845965,3764.43
0.08459989999999999,3646.48
0.0846033,3553.09
0.0846068,3477.65
0.0846119,3388.78
0.08461700000000001,3320.65
0.08462389999999999,3251.8199999999997
0.08463340000000001,3183.58
0.0846428,3135.4
0.08465690000000001,3086.32
0.08467219999999999,3050.49
0.084697,3014.19
0.08473810000000001,2981.77
0.0847962,2959.45
0.0848988,2942.2999999999997
0.0852202,2926.28
0.0873636,2903.08
0.091548,2871.28
0.09176930000000001,2878.1
0.0918399,2894.37
0.0918776,2920.0499999999997
0.0918976,2948.69
0.0919094,2976.39
0.0919202,3015.23
0.0919278,3054.3
0.09193530000000001,3109.93
0.0919412,3172.33
0.09194509999999999,3227.9
0.0919491,3299.9700000000003
0.09195220000000001,3374.43
0.09195460000000001,3443.8300000000004
0.09195690000000001,3529.2799999999997
0.09195930000000001,3636.59
0.091961,3736.48
0.0919628,3858.53
0.09196460000000001,4009.62
0.0919657,4130.849999999999
0.0919669,4272.33
0.0919681,4438.0199999999995
0.0919693,4632.570000000001
0.0919704,4842.85
0.0919714,5065.97
0.09197240000000001,5321.88
0.09197340000000001,5614.94
0.0919744,5949.77
0.0919754,6331.11
0.09197609999999999,6650.5
0.0919769,7000.63
0.0919776,7383.429999999999
0.0919785,7886.49
0.0919795,8488.98
0.0919805,9154.08
0.0919814,9883.31
0.0919824,10676.4
0.0919835,11666.7
0.0919845,12560.800000000001
0.0919859,13993.0
0.0919878,16030.599999999999
0.09199059999999999,19176.4
0.0919919,20586.2
0.0919932,21896.7
0.09199439999999999,22906.1
0.09199550000000001,23780.800000000003
0.0919967,24522.0
0.0919975,24949.9
0.09199840000000001,25242.9
0.0919994,25459.5
0.092,25500.0
0.0920011,25423.9
0.0920022,25163.1
0.092003,24811.899999999998
0.09200390000000001,24345.3
0.09200509999999999,23576.800000000003
0.09200620000000001,22670.9
0.09200749999999999,21457.4
0.09200900000000001,19919.2
0.0920136,14984.5
0.092015,13518.4
0.0920164,12149.099999999999
0.0920173,11300.6
0.0920183,10452.2
0.09201930000000001,9671.34
0.0920204,8958.58
0.0920214,8313.13
0.0920224,7732.71
0.0920232,7288.08
0.09202400000000001,6919.53
0.0920248,6584.150000000001
0.0920256,6279.650000000001
0.09202640000000001,6003.92
0.09202740000000001,5677.08
