E(MeV),xs(mb)
1.0e-11,1.09697e6
1.03223e-11,1.07972e6
1.06549e-11,1.06275e6
1.0998399999999998e-11,1.0460400000000001e6
1.13527e-11,1.0296000000000001e6
1.1718599999999999e-11,1.0134099999999999e6
1.2096199999999998e-11,997479.0
1.24861e-11,981795.9999999999
1.2888399999999999e-11,966366.0
1.3303799999999998e-11,951174.0
1.37325e-11,936225.9999999999
1.41751e-11,921508.0
1.4631799999999997e-11,907028.0
1.51034e-11,892770.0
1.5590099999999998e-11,878741.9999999999
1.6092599999999998e-11,864930.0
1.66111e-11,851340.0000000001
1.71465e-11,837960.0
1.7699e-11,824795.0
1.8269399999999998e-11,811833.0
1.88581e-11,799079.0
1.94659e-11,786522.0
2.00931e-11,774167.0
2.0740699999999998e-11,762003.0
2.1408999999999998e-11,750034.0
2.2099099999999997e-11,738251.0
2.28111e-11,726656.0
2.3546399999999998e-11,715241.0
2.4305099999999997e-11,704009.0
2.50884e-11,692950.0
2.5896799999999997e-11,682069.0
2.67315e-11,671357.0
2.75928e-11,660816.0
2.8482199999999998e-11,650439.0
2.93999e-11,640228.0
3.0347499999999995e-11,630176.0
3.13253e-11,620284.0
3.2335e-11,610546.0
3.33769e-11,600964.0
3.44526e-11,591530.0
3.55627e-11,582248.0
3.67089e-11,573110.0
3.7891799999999997e-11,564118.0
3.9113e-11,555265.0
4.0373400000000003e-11,546555.0
4.1674599999999996e-11,537980.0
4.3017399999999996e-11,529542.0
4.440389999999999e-11,521235.0
4.58347e-11,513061.0
4.7311899999999994e-11,505015.00000000006
4.883639999999999e-11,497097.00000000006
5.0410399999999995e-11,489302.0
5.20348e-11,481632.0
5.37119e-11,474081.0
5.54426e-11,466652.0
5.7229499999999995e-11,459338.0
5.907359999999999e-11,452140.0
6.09775e-11,445055.0
6.29424e-11,438084.0
6.497099999999999e-11,431221.00000000006
6.70645e-11,424468.0
6.9226e-11,417820.00000000006
7.145659999999999e-11,411278.0
7.37596e-11,404839.00000000006
7.61364e-11,398502.0
7.85902e-11,392264.0
8.11227e-11,386126.0
8.37372e-11,380084.0
8.643549999999999e-11,374139.0
8.922119999999998e-11,368286.0
9.209619999999999e-11,362527.0
9.506439999999999e-11,356858.0
9.81277e-11,351280.0
1.01291e-10,345788.0
1.04554e-10,340385.0
1.07924e-10,335065.0
1.11402e-10,329832.0
1.1499200000000001e-10,324679.0
1.1869700000000001e-10,319610.0
1.22523e-10,314619.0
1.26471e-10,309709.0
1.30547e-10,304875.0
1.34754e-10,300119.0
1.3909700000000002e-10,295437.0
1.43579e-10,290830.0
1.48207e-10,286295.0
1.52982e-10,281833.0
1.57913e-10,277440.0
1.6300100000000001e-10,273118.0
1.68254e-10,268863.0
1.73676e-10,264677.0
1.79274e-10,260556.0
1.8505000000000002e-10,256501.0
1.91014e-10,252509.0
1.97169e-10,248582.0
2.03524e-10,244715.99999999997
2.1008200000000003e-10,240912.00000000003
2.16853e-10,237167.0
2.2384e-10,233482.0
2.31055e-10,229855.0
2.385e-10,226287.0
2.46187e-10,222773.00000000003
2.5412e-10,219316.99999999997
2.6231e-10,215913.99999999997
2.70762e-10,212566.0
2.7948900000000003e-10,209270.99999999997
2.88494e-10,206028.0
2.9779300000000004e-10,202836.00000000003
3.07388e-10,199695.0
3.1729500000000004e-10,196603.0
3.27519e-10,193561.0
3.38075e-10,190566.0
3.4896900000000003e-10,187620.0
3.6021600000000004e-10,184719.0
3.7182300000000004e-10,181865.0
3.83807e-10,179056.0
3.96174e-10,176292.0
4.08943e-10,173571.0
4.2212e-10,170893.0
4.3572499999999996e-10,168258.0
4.4976500000000005e-10,165665.0
4.6426100000000007e-10,163112.0
4.79221e-10,160600.0
4.94666e-10,158127.0
5.10605e-10,155694.0
5.270620000000001e-10,153300.0
5.440450000000001e-10,150943.0
5.6158e-10,148623.0
5.796750000000001e-10,146341.0
5.98358e-10,144094.0
6.176389999999999e-10,141883.0
6.37545e-10,139707.0
6.58089e-10,137565.0
6.79298e-10,135458.0
7.01188e-10,133383.0
7.237860000000001e-10,131341.0
7.47109e-10,129332.0
7.71188e-10,127355.0
7.960380000000001e-10,125408.99999999999
8.21693e-10,123493.00000000001
8.48171e-10,121608.0
8.75507e-10,119751.99999999999
9.037190000000002e-10,117926.0
9.32845e-10,116129.0
9.62904e-10,114360.0
9.93937e-10,112619.0
1.0259700000000001e-9,110906.0
1.05903e-9,109220.0
1.09316e-9,107561.0
1.12839e-9,105927.0
1.16475e-9,104319.99999999999
1.2022900000000002e-9,102736.99999999999
1.2410300000000002e-9,101180.0
1.28103e-9,99647.6
1.3223100000000002e-9,98139.40000000001
1.36492e-9,96654.8
1.4089000000000002e-9,95193.9
1.4543100000000001e-9,93755.7
1.5011699999999999e-9,92340.59999999999
1.5495600000000002e-9,90947.5
1.5994900000000002e-9,89576.7
1.6510400000000001e-9,88227.3
1.7042400000000001e-9,86899.4
1.75917e-9,85592.29999999999
1.81585e-9,84306.09999999999
1.87438e-9,83039.90000000001
1.9347700000000003e-9,81793.9
1.99713e-9,80567.4
2.06148e-9,79360.40000000001
2.1279200000000002e-9,78172.3
2.19649e-9,77003.2
2.26728e-9,75852.3
2.3403400000000002e-9,74719.8
2.4157700000000002e-9,73604.90000000001
2.49362e-9,72507.90000000001
2.5739800000000002e-9,71427.9
2.65692e-9,70365.2
2.7425500000000002e-9,69319.1
2.8309300000000003e-9,68289.7
2.92217e-9,67276.3
3.01633e-9,66279.1
3.11354e-9,65297.5
3.21387e-9,64331.50000000001
3.3174500000000004e-9,63380.6
3.42435e-9,62444.8
3.53471e-9,61523.6
3.6486100000000003e-9,60617.1
3.7662000000000005e-9,59724.8
3.88757e-9,58846.7
4.01286e-9,57982.2
4.14217e-9,57131.600000000006
4.2847e-9,56238.9
4.43214e-9,55361.3
4.584660000000001e-9,54498.4
4.74242e-9,53650.1
4.90562e-9,52816.0
5.07442e-9,51995.899999999994
5.24904e-9,51189.600000000006
5.42967e-9,50396.9
5.61651e-9,49617.5
5.809780000000001e-9,48851.2
6.0097e-9,48097.899999999994
6.216500000000001e-9,47357.1
6.43042e-9,46628.8
6.6517e-9,45912.8
6.8805900000000005e-9,45208.700000000004
7.11736e-9,44516.5
7.362280000000001e-9,43835.9
7.61562e-9,43166.799999999996
7.87768e-9,42508.8
8.14876e-9,41862.00000000001
8.42917e-9,41226.0
8.71923e-9,40600.6
9.019270000000001e-9,39985.8
9.329630000000001e-9,39381.3
9.65068e-9,38787.0
9.98277e-9,38202.7
1.0326299999999999e-8,37628.2
1.0681600000000001e-8,37063.4
1.10492e-8,36508.1
1.1429400000000001e-8,35962.200000000004
1.18227e-8,35425.4
1.22295e-8,34897.7
1.26504e-8,34378.799999999996
1.3085700000000001e-8,33868.6
1.3536e-8,33366.9
1.40018e-8,32873.700000000004
1.44836e-8,32388.8
1.4982e-8,31911.999999999996
1.54975e-8,31443.1
1.6030800000000002e-8,30982.2
1.65825e-8,30528.9
1.71531e-8,30083.3
1.77433e-8,29645.199999999997
1.83539e-8,29214.5
1.89855e-8,28790.9
1.96388e-8,28374.600000000002
2.0314600000000002e-8,27965.2
2.10136e-8,27562.7
2.17368e-8,27167.0
2.2484700000000003e-8,26777.899999999998
2.32585e-8,26395.4
2.40588e-8,26019.399999999998
2.48867e-8,25649.600000000002
2.52522e-8,25492.2
2.5299999999999998e-8,25471.9
2.61706e-8,25111.3
2.7071200000000002e-8,24756.7
2.80027e-8,24408.1
2.8966300000000002e-8,24065.4
2.99631e-8,23728.4
3.09942e-8,23397.100000000002
3.20607e-8,23071.3
3.32342e-8,22731.1
3.44505e-8,22397.100000000002
3.57115e-8,22069.100000000002
3.70185e-8,21746.9
3.8373499999999996e-8,21430.5
3.97779e-8,21119.8
4.12339e-8,20814.6
4.2743e-8,20514.899999999998
4.43075e-8,20220.4
4.59291e-8,19931.1
4.76103e-8,19647.0
4.93527e-8,19368.0
5.11592e-8,19093.899999999998
5.30316e-8,18824.8
5.49727e-8,18560.399999999998
5.69846e-8,18300.8
5.907040000000001e-8,18045.7
6.12323e-8,17795.3
6.347360000000001e-8,17549.3
6.57966e-8,17307.7
6.820500000000001e-8,17070.5
7.07012e-8,16837.5
7.32891e-8,16608.6
7.59713e-8,16383.9
7.875210000000001e-8,16163.300000000001
8.16343e-8,15946.6
8.46224e-8,15733.699999999999
8.771940000000001e-8,15524.6
9.093019999999999e-8,15319.1
9.425820000000001e-8,15117.400000000001
9.79149e-8,14907.6
1.01714e-7,14701.900000000001
1.05659e-7,14500.0
1.09759e-7,14302.0
1.1401699999999998e-7,14107.7
1.1843999999999998e-7,13917.1
1.23035e-7,13730.1
1.27808e-7,13546.6
1.32766e-7,13366.6
1.37917e-7,13190.0
1.43267e-7,13016.7
1.48825e-7,12846.800000000001
1.54599e-7,12680.1
1.60597e-7,12516.6
1.66827e-7,12356.199999999999
1.73299e-7,12198.800000000001
1.80022e-7,12044.2
1.87006e-7,11892.7
1.9467299999999999e-7,11735.7
2.02653e-7,11581.999999999998
2.1096099999999998e-7,11431.3
2.1960799999999996e-7,11283.6
2.2861199999999998e-7,11138.9
2.37983e-7,10997.1
2.47739e-7,10858.099999999999
2.57894e-7,10721.8
2.68467e-7,10588.3
2.7947199999999995e-7,10457.5
2.90929e-7,10329.3
3.0285499999999997e-7,10203.7
3.1527099999999996e-7,10080.7
3.2889e-7,9953.84
3.4309699999999997e-7,9829.55
3.5791799999999996e-7,9707.869999999999
3.73379e-7,9588.74
3.89508e-7,9472.13
4.06334e-7,9357.97
4.2388599999999996e-7,9246.22
4.42197e-7,9136.83
4.6129899999999995e-7,9029.74
4.81226e-7,8924.9
5.02013e-7,8822.279999999999
5.236989999999999e-7,8721.82
5.47477e-7,8618.62
5.72337e-7,8517.699999999999
5.98323e-7,8419.02
6.254909999999999e-7,8322.609999999999
6.53891e-7,8228.34
6.835819999999999e-7,8136.03
7.14619e-7,8045.780000000001
7.47069e-7,7957.5199999999995
7.82643e-7,7867.16
8.199109999999999e-7,7778.889999999999
8.58954e-7,7692.67
8.998559999999999e-7,7608.450000000001
9.42706e-7,7526.18
9.87596e-7,7445.8099999999995
1.0351699999999999e-6,7366.44
1.09484e-6,7274.51
1.17428e-6,7162.92
1.26837e-6,7044.81
1.3990599999999998e-6,6900.96
1.56498e-6,6744.6
1.80033e-6,6561.650000000001
2.115e-6,6366.04
2.5022e-6,6178.320000000001
2.9397e-6,6012.92
3.50224e-6,5845.84
4.20186e-6,5687.46
5.0768e-6,5536.07
6.176899999999999e-6,5392.55
7.56801e-6,5256.400000000001
9.40371e-6,5122.22
1.16841e-5,4998.97
1.4723000000000001e-5,4874.82
1.89458e-5,4748.15
2.4550600000000002e-5,4624.2
3.0936e-5,4518.63
3.8170600000000003e-5,4433.950000000001
4.48422e-5,4388.3099999999995
4.9068100000000005e-5,4378.9800000000005
5.40691e-5,4395.38
5.7992400000000004e-5,4434.41
6.13349e-5,4492.28
6.487020000000001e-5,4584.240000000001
6.765470000000001e-5,4688.13
7.00645e-5,4805.39
7.255980000000001e-5,4960.35
7.46177e-5,5119.66
7.673790000000002e-5,5320.09
7.836570000000001e-5,5506.389999999999
8.00319e-5,5728.6900000000005
8.172950000000001e-5,5995.73
8.278820000000001e-5,6186.6
8.39562e-5,6422.900000000001
8.514070000000001e-5,6693.26
8.634190000000001e-5,7003.62
8.756000000000001e-5,7360.95
8.879530000000001e-5,7773.5599999999995
8.97349e-5,8128.53
9.06724e-5,8521.08
9.16007e-5,8954.61
9.25123e-5,9427.23
9.342390000000001e-5,9955.51
9.433560000000001e-5,10544.0
9.52472e-5,11205.199999999999
9.615880000000001e-5,11945.699999999999
9.707050000000001e-5,12782.500000000002
9.767820000000001e-5,13399.0
9.8286e-5,14069.1
9.88937e-5,14798.6
9.950150000000002e-5,15593.999999999998
0.00010010900000000001,16463.1
0.00010071699999999999,17414.3
0.00010132500000000001,18457.7
0.000101932,19604.600000000002
0.00010254000000000002,20868.2
0.000103148,22252.800000000003
0.00010375600000000001,23796.8
0.00010436399999999999,25511.499999999996
0.000104971,27421.1
0.000105427,28998.6
0.000105883,30720.399999999998
0.00010649100000000001,33256.5
0.00010694600000000002,35366.6
0.000107402,37676.7
0.00010785800000000001,40221.600000000006
0.00010831400000000001,43026.4
0.00010876999999999999,46125.99999999999
0.000109226,49561.299999999996
0.00010968100000000001,53380.5
0.000110137,57640.5
0.000110441,60758.4
0.00011074500000000001,64125.2
0.000111049,67767.3
0.000111353,71714.4
0.000111657,76000.2
0.00011195999999999999,80663.3
0.00011226400000000001,85747.9
0.00011256800000000001,91304.4
0.000112872,97391.40000000001
0.00011317600000000002,104075.99999999999
0.00011348,111437.00000000001
0.00011378400000000001,119566.0
0.000114088,128569.0
0.00011431500000000002,135971.0
0.000114543,143997.0
0.000114771,152717.0
0.00011499900000000001,162212.0
0.000115227,172573.0
0.000115455,183905.0
0.00011568300000000001,196317.0
0.00011591100000000001,209926.0
0.000116139,224945.0
0.000116367,241577.99999999997
0.000116595,260028.00000000003
0.00011682200000000001,280558.0
0.00011700500000000001,298688.0
0.000117187,318529.0
0.000117369,340299.0
0.000117552,364265.0
0.00011773400000000001,390720.0
0.000117868,411886.0
0.000118014,436878.0
0.00011816000000000001,464090.0
0.000118305,493790.0
0.00011843900000000001,523453.00000000006
0.000118561,552667.0
0.000118682,584251.0
0.00011880400000000001,618457.0
0.000118925,655572.0
0.000119047,695917.0
0.00011916800000000001,739862.0
0.00011929000000000002,787825.0
0.00011941100000000001,840283.0
0.00011953300000000001,897784.0
0.000119655,960953.0
0.000119776,1.03051e6
0.000119898,1.10728e6
0.00012001900000000002,1.19222e6
0.00012014100000000001,1.28643e6
0.00012023200000000001,1.36393e6
0.000120323,1.44794e6
0.000120414,1.53917e6
0.000120505,1.63833e6
0.00012059700000000001,1.74628e6
0.00012068800000000001,1.86391e6
0.000120779,1.99225e6
0.00012087000000000001,2.13239e6
0.00012096100000000001,2.28553e6
0.000121052,2.45296e6
0.00012114400000000002,2.63605e6
0.00012123500000000001,2.83622e6
0.00012132600000000001,3.05489e6
0.000121417,3.29345e6
0.000121508,3.55314e6
0.000121599,3.83494e6
0.000121691,4.1394e6
0.000121782,4.46641e6
0.00012190300000000002,4.93556e6
0.00012202500000000001,5.43688e6
0.00012232900000000001,6.74174e6
0.00012245,7.22538e6
0.00012254100000000002,7.54608e6
0.000122633,7.81541e6
0.00012272400000000003,8.020630000000001e6
0.000122788,8.12045e6
0.000122854,8.18305e6
0.000122915,8.201280000000001e6
0.00012299,8.17277e6
0.000123065,8.088609999999999e6
0.000123141,7.95228e6
0.000123216,7.76899e6
0.000123298,7.5237e6
0.00012338,7.24e6
0.000123503,6.76401e6
0.000123831,5.40458e6
0.000123945,4.95575e6
0.000124055,4.55095e6
0.000124164,4.1754499999999995e6
0.000124274,3.83058e6
0.00012438300000000002,3.51613e6
0.000124492,3.23083e6
0.000124602,2.97281e6
0.000124711,2.73988e6
0.000124821,2.52979e6
0.00012493,2.34029e6
0.000125039,2.16928e6
0.000125124,2.04779e6
0.000125209,1.93545e6
0.000125295,1.83146e6
0.00012538,1.73513e6
0.000125507,1.60354e6
0.00012563500000000003,1.48571e6
0.00012572,1.41394e6
0.000125829,1.32881e6
0.00012593900000000002,1.25093e6
0.00012604800000000002,1.17954e6
0.000126158,1.11398e6
0.000126267,1.05366e6
0.000126376,998054.0
0.000126486,946704.0000000001
0.000126595,899202.0
0.00012671699999999999,850494.0
0.00012683800000000002,805648.0
0.00012696000000000002,764277.0
0.000127142,708000.0
0.000127324,657792.0
0.000127507,612832.0
0.000127648,581165.0
0.000127809,548078.0
0.00012797,517820.00000000006
0.000128131,490024.0
0.000128292,464417.0
0.000128453,440822.0
0.000128614,419078.0
0.000128856,389519.0
0.000129107,362154.0
0.00012935700000000003,337686.0
0.000129608,315785.0
0.000129859,296027.0
0.00013010900000000002,278146.0
0.000130375,260997.0
0.000130649,245061.00000000003
0.000130922,230636.00000000003
0.000131196,217535.0
0.000131469,205599.0
0.00013174300000000003,194695.0
0.00013201600000000002,184704.0
0.000132381,172634.0
0.00013274600000000002,161810.0
0.00013311,152065.0
0.000133475,143258.0
0.00013384,135271.0
0.000134204,128004.99999999999
0.00013456900000000002,121373.0
0.000134934,115303.0
0.000135298,109732.99999999999
0.000135845,102196.0
0.00013639200000000002,95515.9
0.000136939,89575.8
0.000137486,84229.7
0.000138056,79222.7
0.000138626,74723.4
0.000139195,70662.3
0.000139765,66987.4
0.00014052500000000001,62608.7
0.00014120900000000002,59082.7
0.000141892,55907.5
0.000142576,53036.2
0.00014326,50429.6
0.000144171,47308.3
0.000145083,44542.0
0.00014599500000000003,42070.0
0.000146906,39857.0
0.000147818,37861.5
0.00014873000000000002,36059.6
0.000149641,34422.299999999996
0.000151009,32236.3
0.00015237600000000002,30322.5
0.000153744,28635.4
0.000155111,27139.5
0.00015647800000000002,25806.300000000003
0.00015804100000000001,24454.5
0.000159865,23067.600000000002
0.00016171300000000002,21829.0
0.000163421,20822.5
0.00016514400000000002,19911.5
0.000166658,19187.3
0.00016901,18187.3
0.000171394,17300.8
0.00017381200000000002,16510.4
0.000176264,15802.099999999999
0.000178751,15164.5
0.000181244,14594.199999999999
0.00018489100000000002,13863.7
0.00018853700000000001,13234.1
0.000192184,12686.3
0.000197046,12060.800000000001
0.00020190800000000002,11525.8
0.00020677,11065.199999999999
0.00021284800000000002,10571.4
0.000218925,10152.5
0.000226218,9723.63
0.000233511,9358.72
0.00024202,8995.240000000002
0.00025174400000000003,8643.869999999999
0.000262691,8310.560000000001
0.000274558,8002.750000000001
0.00028969900000000003,7672.6
0.000307042,7354.71
0.000327946,7031.09
0.000353031,6699.38
0.00038647800000000005,6314.74
0.000454212,5616.16
0.000502166,5113.6
0.000533798,4752.360000000001
0.0005600380000000001,4423.68
0.000582879,4108.889999999999
0.000603881,3791.65
0.000622695,3480.67
0.0006415090000000001,3144.26
0.0006665940000000001,2665.2599999999998
0.000681227,2388.7
0.000689589,2244.6000000000004
0.00069586,2150.1899999999996
0.000700041,2098.23
0.0007042220000000001,2058.29
0.000707357,2038.71
0.0007110150000000001,2029.1999999999998
0.0007137590000000001,2035.1699999999998
0.0007162410000000001,2050.98
0.000718593,2077.07
0.0007209450000000001,2117.1000000000004
0.000723297,2171.78
0.0007248640000000001,2218.29
0.0007264320000000001,2273.93
0.000728,2339.6499999999996
0.000729568,2416.67
0.000731136,2506.37
0.000732703,2610.33
0.0007342710000000001,2730.31
0.0007358390000000001,2868.3999999999996
0.000737407,3026.91
0.0007389750000000001,3208.59
0.0007401770000000001,3365.5
0.0007414310000000001,3547.48
0.000742685,3750.55
0.000744044,3995.72
0.000744985,4182.13
0.0007463960000000001,4493.04
0.000747702,4816.72
0.000748957,5163.98
0.0007502110000000001,5551.51
0.000751465,5984.47
0.000752719,6468.73
0.000753555,6823.43
0.000754392,7206.26
0.000755228,7619.7699999999995
0.0007560640000000001,8066.76
0.0007569,8550.39
0.000757736,9074.130000000001
0.0007585720000000001,9641.9
0.000759409,10258.0
0.0007602450000000001,10927.500000000002
0.000761081,11655.599999999999
0.0007619170000000001,12448.8
0.000762753,13313.8
0.0007635890000000001,14258.699999999999
0.000764426,15292.4
0.0007652620000000001,16425.2
0.0007660980000000001,17668.5
0.000766934,19031.7
0.00076777,20533.899999999998
0.000768606,22196.8
0.000769234,23559.5
0.000769861,25031.8
0.000770488,26625.0
0.0007711150000000001,28351.3
0.000771742,30224.899999999998
0.0007723690000000001,32261.7
0.0007729960000000001,34479.6
0.0007736230000000001,36899.3
0.000774243,39512.7
0.000774862,42374.299999999996
0.0007754810000000001,45502.399999999994
0.000776101,48931.899999999994
0.0007767200000000001,52712.0
0.0007773290000000001,56811.7
0.0007779320000000001,61299.9
0.000778536,66268.90000000001
0.0007791400000000001,71784.3
0.0007797430000000001,77909.1
0.000780146,82379.5
0.0007807100000000001,89243.7
0.000781274,96886.1
0.0007816510000000001,102468.0
0.000782027,108485.00000000001
0.000782403,114979.00000000001
0.000782779,121998.0
0.000783156,129597.99999999999
0.0007834900000000001,136890.0
0.000783825,144737.0
0.0007841590000000001,153192.0
0.0007844940000000001,162315.0
0.000784828,172174.0
0.0007851630000000001,182842.0
0.000785497,194404.0
0.0007858320000000001,206953.0
0.000786124,218827.00000000003
0.000786417,231615.0
0.000786709,245406.0
0.0007870020000000001,260297.0
0.000787295,276394.0
0.0007875870000000001,293816.0
0.00078788,312694.0
0.0007881730000000001,333174.0
0.0007885180000000001,359585.0
0.000788863,388726.0
0.000789208,420904.0
0.0007895520000000001,456475.0
0.000789897,495864.99999999994
0.000790221,536749.0
0.0007905350000000001,580252.0
0.000790849,627973.0
0.0007911620000000001,680266.0
0.000791476,737476.0
0.0007918000000000001,802056.9999999999
0.0007921450000000001,877093.0
0.0007924900000000001,958604.0
0.0007928340000000001,1.04633e6
0.000793294,1.17178e6
0.000794402,1.49066e6
0.000794731,1.57934e6
0.000795061,1.65901e6
0.00079528,1.70523e6
0.00079551,1.74635e6
0.00079574,1.77893e6
0.00079597,1.80208e6
0.0007962000000000001,1.81515e6
0.000796367,1.81815e6
0.000796566,1.81459e6
0.000796764,1.80346e6
0.0007970620000000001,1.77342e6
0.0007973600000000001,1.72902e6
0.000797658,1.67261e6
0.0007979560000000001,1.60682e6
0.000798379,1.50245e6
0.000799508,1.20776e6
0.000799931,1.10372e6
0.000800339,1.01037e6
0.000800715,930865.0
0.0008010920000000001,857912.9999999999
0.0008014680000000001,791378.0
0.000801844,730936.0
0.00080222,676164.0
0.0008025130000000001,637184.0
0.000802806,601127.0
0.000803098,567772.0
0.0008033910000000001,536906.0
0.000803684,508328.0
0.000803976,481850.0
