E(MeV),xs(mb)
1.0e-11,3.06846e6
1.03223e-11,3.02023e6
1.06549e-11,2.97277e6
1.0998399999999998e-11,2.92604e6
1.13527e-11,2.88007e6
1.1718599999999999e-11,2.83481e6
1.2096199999999998e-11,2.79027e6
1.24861e-11,2.74642e6
1.2888399999999999e-11,2.70328e6
1.3303799999999998e-11,2.6608e6
1.37325e-11,2.619e6
1.41751e-11,2.57785e6
1.4631799999999997e-11,2.53736e6
1.51034e-11,2.4975e6
1.5590099999999998e-11,2.45827e6
1.6092599999999998e-11,2.41966e6
1.66111e-11,2.38166e6
1.71465e-11,2.34425e6
1.7699e-11,2.30744e6
1.8269399999999998e-11,2.2712e6
1.88581e-11,2.23554e6
1.94659e-11,2.20044e6
2.00931e-11,2.1659e6
2.0740699999999998e-11,2.13189e6
2.1408999999999998e-11,2.09843e6
2.2099099999999997e-11,2.06548e6
2.28111e-11,2.03307e6
2.3546399999999998e-11,2.00116e6
2.4305099999999997e-11,1.96976e6
2.50884e-11,1.93884e6
2.5896799999999997e-11,1.90842e6
2.67315e-11,1.87848e6
2.75928e-11,1.84901e6
2.8482199999999998e-11,1.82e6
2.93999e-11,1.79146e6
3.0347499999999995e-11,1.76336e6
3.13253e-11,1.73571e6
3.2335e-11,1.70849e6
3.33769e-11,1.68171e6
3.44526e-11,1.65534e6
3.55627e-11,1.6294e6
3.67089e-11,1.60385e6
3.7891799999999997e-11,1.57872e6
3.9113e-11,1.55398e6
4.0373400000000003e-11,1.52964e6
4.1674599999999996e-11,1.50567e6
4.3017399999999996e-11,1.48209e6
4.440389999999999e-11,1.45887e6
4.58347e-11,1.43603e6
4.7311899999999994e-11,1.41354e6
4.883639999999999e-11,1.39142e6
5.0410399999999995e-11,1.36964e6
5.20348e-11,1.3482e6
5.37119e-11,1.3271e6
5.54426e-11,1.30634e6
5.7229499999999995e-11,1.28591e6
5.907359999999999e-11,1.2658e6
6.09775e-11,1.246e6
6.29424e-11,1.22653e6
6.497099999999999e-11,1.20735e6
6.70645e-11,1.18849e6
6.9226e-11,1.16991e6
7.145659999999999e-11,1.15164e6
7.37596e-11,1.13365e6
7.61364e-11,1.11595e6
7.85902e-11,1.09853e6
8.11227e-11,1.08138e6
8.37372e-11,1.06451e6
8.643549999999999e-11,1.0479e6
8.922119999999998e-11,1.03156e6
9.209619999999999e-11,1.0154700000000001e6
9.506439999999999e-11,999643.0
9.81277e-11,984065.0
1.01291e-10,968730.0
1.04554e-10,953644.0000000001
1.07924e-10,938791.0
1.11402e-10,924180.0
1.1499200000000001e-10,909795.0000000001
1.1869700000000001e-10,895644.0000000001
1.22523e-10,881711.9999999999
1.26471e-10,868005.9999999999
1.30547e-10,854512.0000000001
1.34754e-10,841238.0000000001
1.3909700000000002e-10,828168.9999999999
1.43579e-10,815313.0000000001
1.48207e-10,802657.0
1.52982e-10,790205.0
1.57913e-10,777948.0
1.6300100000000001e-10,765889.0
1.68254e-10,754018.0
1.73676e-10,742339.0
1.79274e-10,730843.0
1.8505000000000002e-10,719532.0
1.91014e-10,708398.0
1.97169e-10,697445.0
2.03524e-10,686662.0
2.1008200000000003e-10,676054.0
2.16853e-10,665612.0
2.2384e-10,655338.0
2.31055e-10,645226.0
2.385e-10,635277.0
2.46187e-10,625483.0
2.5412e-10,615848.0
2.6231e-10,606364.0
2.70762e-10,597033.0
2.7948900000000003e-10,587849.0
2.88494e-10,578812.0
2.9779300000000004e-10,569918.0
3.07388e-10,561167.0
3.1729500000000004e-10,552554.0
3.27519e-10,544079.0
3.38075e-10,535738.0
3.4896900000000003e-10,527531.0
3.6021600000000004e-10,519453.00000000006
3.7182300000000004e-10,511505.0
3.83807e-10,503681.99999999994
3.96174e-10,495986.0
4.08943e-10,488410.0
4.2212e-10,480957.0
4.3572499999999996e-10,473620.0
4.4976500000000005e-10,466402.0
4.6426100000000007e-10,459298.0
4.79221e-10,452306.99999999994
4.94666e-10,445427.0
5.10605e-10,438658.00000000006
5.270620000000001e-10,431994.0
5.440450000000001e-10,425439.0
5.6158e-10,418986.00000000006
5.796750000000001e-10,412636.99999999994
5.98358e-10,406388.0
6.176389999999999e-10,400239.0
6.37545e-10,394188.0
6.58089e-10,388233.0
6.79298e-10,382372.0
7.01188e-10,376605.0
7.237860000000001e-10,370929.0
7.47109e-10,365344.0
7.71188e-10,359847.0
7.960380000000001e-10,354439.0
8.21693e-10,349115.0
8.48171e-10,343877.0
8.75507e-10,338721.0
9.037190000000002e-10,333648.0
9.32845e-10,328654.0
9.62904e-10,323741.0
9.93937e-10,318905.0
1.0259700000000001e-9,314146.0
1.05903e-9,309462.0
1.09316e-9,304853.0
1.12839e-9,300317.0
1.16475e-9,295854.0
1.2022900000000002e-9,291460.0
1.2410300000000002e-9,287137.0
1.28103e-9,282882.0
1.3223100000000002e-9,278695.0
1.36492e-9,274573.0
1.4089000000000002e-9,270518.0
1.4543100000000001e-9,266526.0
1.5011699999999999e-9,262599.0
1.5495600000000002e-9,258733.0
1.5994900000000002e-9,254928.0
1.6510400000000001e-9,251183.99999999997
1.7042400000000001e-9,247499.0
1.75917e-9,243873.0
1.8197000000000002e-9,240068.0
1.88232e-9,236327.0
1.94709e-9,232649.99999999997
2.01409e-9,229035.0
2.0834e-9,225480.0
2.1550900000000003e-9,221986.00000000003
2.22925e-9,218550.99999999997
2.3059599999999998e-9,215174.00000000003
2.3853100000000003e-9,211854.0
2.4674000000000004e-9,208589.0
2.5523e-9,205379.99999999997
2.64013e-9,202226.00000000003
2.7309800000000004e-9,199124.0
2.82496e-9,196075.0
2.92217e-9,193077.0
3.02272e-9,190130.0
3.12674e-9,187232.0
3.23433e-9,184384.0
3.34563e-9,181583.0
3.4607600000000004e-9,178830.0
3.5798400000000003e-9,176124.0
3.70303e-9,173462.0
3.8304600000000004e-9,170846.0
3.96227e-9,168274.0
4.09861e-9,165746.0
4.23965e-9,163260.0
4.38554e-9,160816.0
4.53645e-9,158413.0
4.692560000000001e-9,156050.0
4.85404e-9,153728.0
5.02107e-9,151445.0
5.19385e-9,149200.0
5.3725800000000005e-9,146994.0
5.557450000000001e-9,144824.0
5.74869e-9,142691.0
5.94651e-9,140594.0
6.15114e-9,138533.0
6.3628e-9,136506.0
6.58176e-9,134514.0
6.80824e-9,132555.0
7.04252e-9,130629.0
7.2848600000000004e-9,128735.0
7.535540000000001e-9,126874.0
7.794850000000001e-9,125044.0
8.06308e-9,123245.0
8.34054e-9,121476.0
8.62755e-9,119737.0
8.924429999999999e-9,118027.0
9.23153e-9,116347.0
9.549200000000001e-9,114694.0
9.877800000000002e-9,113070.0
1.0217700000000001e-8,111473.0
1.05693e-8,109903.0
1.0933e-8,108359.99999999999
1.13092e-8,106841.99999999999
1.16984e-8,105351.0
1.2101e-8,103885.0
1.25174e-8,102443.0
1.29755e-8,100938.0
1.34504e-8,99460.09999999999
1.39427e-8,98008.7
1.4453e-8,96583.1
1.4982e-8,95183.3
1.55304e-8,93808.4
1.60988e-8,92458.4
1.6688e-8,91132.50000000001
1.72988e-8,89830.6
1.7931999999999998e-8,88551.90000000001
1.85883e-8,87296.5
1.92686e-8,86063.50000000001
1.99738e-8,84852.90000000001
2.07049e-8,83663.90000000001
2.14627e-8,82496.6
2.2248299999999998e-8,81350.3
2.30626e-8,80224.8
2.39067e-8,79119.5
2.47817e-8,78034.3
2.52522e-8,77474.3
2.5299999999999998e-8,77418.4
2.6226099999999998e-8,76363.8
2.71859e-8,75328.5
2.8181e-8,74311.7
2.9212400000000002e-8,73313.3
3.0281600000000004e-8,72332.90000000001
3.13899e-8,71370.2
3.2538900000000006e-8,70424.8
3.37297e-8,69496.7
3.4964300000000004e-8,68585.2
3.63208e-8,67638.3
3.7729800000000003e-8,66709.6
3.9193600000000005e-8,65798.7
4.07141e-8,64905.5
4.22936e-8,64029.4
4.39344e-8,63170.299999999996
4.5638800000000005e-8,62327.8
4.74094e-8,61501.700000000004
4.92486e-8,60691.7
5.11592e-8,59897.5
5.3143900000000004e-8,59118.700000000004
5.52057e-8,58355.1
5.7347400000000006e-8,57606.299999999996
5.95722e-8,56871.9
6.18833e-8,56151.7
6.4284e-8,55445.6
6.67779e-8,54753.299999999996
6.936860000000001e-8,54074.600000000006
7.22121e-8,53372.700000000004
7.51725e-8,52685.399999999994
7.825400000000001e-8,52012.4
8.14621e-8,51353.4
8.480130000000001e-8,50708.399999999994
8.82779e-8,50077.100000000006
9.18965e-8,49459.200000000004
9.566390000000001e-8,48854.2
9.95853e-8,48261.9
1.03668e-7,47681.899999999994
1.0791699999999999e-7,47114.399999999994
1.12342e-7,46559.0
1.16947e-7,46015.49999999999
1.2199899999999998e-7,45456.1
1.27269e-7,44909.4
1.32766e-7,44375.299999999996
1.38501e-7,43853.4
1.4448399999999999e-7,43343.7
1.50726e-7,42845.8
1.57237e-7,42359.600000000006
1.64029e-7,41884.9
1.71114e-7,41421.6
1.78506e-7,40969.6
1.86612e-7,40506.6
1.9508499999999998e-7,40055.1
2.03943e-7,39615.200000000004
2.1320299999999998e-7,39186.700000000004
2.2288399999999997e-7,38769.5
2.3300299999999996e-7,38363.5
2.4358399999999997e-7,37968.3
2.54643e-7,37584.0
2.6676899999999997e-7,37192.799999999996
2.7947199999999995e-7,36813.2
2.9278e-7,36444.9
3.06722e-7,36087.9
3.21327e-7,35741.9
3.36628e-7,35407.1
3.52658e-7,35083.4
3.70234e-7,34756.6
3.8868399999999996e-7,34441.2
4.08056e-7,34137.4
4.2839099999999996e-7,33845.299999999996
4.4974100000000003e-7,33564.7
4.7215299999999993e-7,33295.7
4.967329999999999e-7,33027.4
5.22592e-7,32771.7
5.497969999999999e-7,32528.800000000003
5.784189999999999e-7,32298.6
6.0853e-7,32081.4
6.415659999999999e-7,31869.0
6.74964e-7,31679.1
7.11604e-7,31495.7
7.502349999999999e-7,31326.9
7.9096e-7,31173.7
8.33899e-7,31036.600000000002
8.79165e-7,30916.0
9.268929999999999e-7,30812.8
9.77208e-7,30727.8
1.02797e-6,30664.3
1.09484e-6,30612.300000000003
1.18053e-6,30590.1
1.29304e-6,30629.8
1.4262699999999998e-6,30769.1
1.58433e-6,31046.399999999998
1.77223e-6,31534.2
1.98242e-6,32284.1
2.18668e-6,33244.4
2.3784299999999995e-6,34390.7
2.55101e-6,35671.6
2.6980499999999995e-6,36998.6
2.83357e-6,38456.8
2.9552e-6,40001.2
3.06061e-6,41574.200000000004
3.16963e-6,43480.8
3.2596899999999996e-6,45319.200000000004
3.35232e-6,47517.7
3.42359e-6,49468.3
3.49621e-6,51736.899999999994
3.5705499999999996e-6,54414.9
3.6209199999999996e-6,56474.9
3.67201e-6,58802.700000000004
3.7238099999999997e-6,61444.200000000004
3.77635e-6,64466.4
3.829629999999999e-6,67963.9
3.87006e-6,70957.3
3.91086e-6,74326.6
3.95224e-6,78160.3
3.99401e-6,82531.09999999999
4.03618e-6,87549.4
4.064549999999999e-6,91329.0
4.0931199999999995e-6,95514.7
4.12189e-6,100169.0
4.15087e-6,105369.0
4.18004e-6,111206.0
4.20943e-6,117792.00000000001
4.23902e-6,125264.0
4.26131e-6,131542.0
4.28382e-6,138537.0
4.30632e-6,146294.0
4.32904e-6,155014.0
4.35186e-6,164816.0
4.37469e-6,175834.0
4.39783e-6,188467.0
4.41326e-6,197838.0
4.42869e-6,208083.00000000003
4.44423e-6,219404.00000000003
4.45988e-6,231964.00000000003
4.47552e-6,245854.00000000003
4.49117e-6,261272.0
4.5069299999999996e-6,278584.0
4.5228e-6,298118.0
4.5347e-6,314368.0
4.5466e-6,332186.0
4.5585000000000005e-6,351785.0
4.5705099999999995e-6,373630.0
4.58258e-6,397968.0
4.594649999999999e-6,425071.0
4.60672e-6,455381.00000000006
4.61879e-6,489433.99999999994
4.62683e-6,514532.0
4.63822e-6,553824.0
4.6458099999999995e-6,582822.0
4.6534e-6,614376.0
4.66098e-6,648800.0
4.66857e-6,686463.0
4.67616e-6,727792.0
4.68375e-6,773287.0
4.692169999999999e-6,829358.0
4.69911e-6,880639.0
4.7060500000000005e-6,937187.0
4.71298e-6,999756.0
4.71992e-6,1.06924e6
4.727159999999999e-6,1.15018e6
4.73238e-6,1.21474e6
4.7375899999999995e-6,1.28517e6
4.74281e-6,1.36218e6
4.74779e-6,1.44256e6
4.752539999999999e-6,1.52611e6
4.75728e-6,1.61727e6
4.76203e-6,1.7169e6
4.76653e-6,1.82029e6
4.7708e-6,1.92694e6
4.77507e-6,2.04291e6
4.77934e-6,2.16914e6
4.78385e-6,2.3146e6
4.7885899999999995e-6,2.48262e6
4.79334e-6,2.66743e6
4.798079999999999e-6,2.87061e6
4.80282e-6,3.09375e6
4.80757e-6,3.33843e6
4.8123099999999995e-6,3.60612e6
4.81706e-6,3.89814e6
4.821799999999999e-6,4.21554e6
4.82654e-6,4.55902e6
4.83129e-6,4.92882e6
4.8360299999999995e-6,5.32458e6
4.84078e-6,5.74528e6
4.847889999999999e-6,6.41878e6
4.85501e-6,7.13394e6
4.8739800000000006e-6,9.11544e6
4.8811e-6,9.81982e6
4.88822e-6,1.046e7
4.89296e-6,1.08368e7
4.8977000000000006e-6,1.1164099999999998e7
4.90245e-6,1.14347e7
4.90695e-6,1.16334e7
4.91122e-6,1.17653e7
4.916389999999999e-6,1.18478e7
4.91943e-6,1.18559e7
4.92308e-6,1.18258e7
4.92806e-6,1.17156e7
4.9328099999999994e-6,1.15389e7
4.93755e-6,1.12963e7
4.9423e-6,1.09934e7
4.9470400000000005e-6,1.06371e7
4.95416e-6,1.00194e7
4.96127e-6,9.32705e6
4.97313e-6,8.085319999999999e6
4.98499e-6,6.83768e6
4.99211e-6,6.12621e6
4.99685e-6,5.67648e6
5.0016e-6,5.24986e6
5.006339999999999e-6,4.84827e6
5.01108e-6,4.47283e6
5.01583e-6,4.1239600000000005e6
5.02057e-6,3.8015e6
5.02532e-6,3.5048e6
5.030059999999999e-6,3.23284e6
5.0348e-6,2.98435e6
5.03955e-6,2.75786e6
5.04429e-6,2.55181e6
5.04904e-6,2.36459e6
5.053779999999999e-6,2.19461e6
5.05852e-6,2.0403099999999998e6
5.06327e-6,1.90024e6
5.06801e-6,1.77299e6
5.07276e-6,1.6573e6
5.077499999999999e-6,1.55199e6
5.08224e-6,1.45599e6
5.08699e-6,1.36834e6
5.0917299999999994e-6,1.28819e6
5.09648e-6,1.21475e6
5.101219999999999e-6,1.14733e6
5.10596e-6,1.08534e6
5.11071e-6,1.0282100000000001e6
5.1154499999999994e-6,975481.0000000001
5.1225699999999995e-6,903692.0
5.12968e-6,839584.9999999999
5.13443e-6,800591.0
5.140119999999999e-6,757313.0
5.14581e-6,717488.0
5.1515099999999996e-6,680760.0
5.1571999999999995e-6,646817.0
5.163129999999999e-6,614126.0
5.1720199999999995e-6,569614.0
5.18092e-6,529848.0
5.1880300000000005e-6,501010.00000000006
5.19515e-6,474509.0
5.20286e-6,448153.0
5.21175e-6,420442.0
5.22065e-6,395285.0
5.22954e-6,372378.0
5.23844e-6,351463.0
5.247329999999999e-6,332316.0
5.25623e-6,314743.0
5.2651199999999995e-6,298577.0
5.275699999999999e-6,280984.0
5.285e-6,266829.0
5.29894e-6,247605.0
5.31288e-6,230483.0
5.32683e-6,215170.0
5.34077e-6,201422.0
5.354849999999999e-6,188925.0
5.36899e-6,177590.0
5.383130000000001e-6,167328.0
5.3972699999999996e-6,158008.0
5.411409999999999e-6,149521.0
5.425609999999999e-6,141737.0
5.4399499999999995e-6,134550.0
5.4590699999999996e-6,125888.0
5.47819e-6,118141.0
5.49731e-6,111186.99999999999
5.5167e-6,104840.0
5.5360899999999995e-6,99114.6
5.55548e-6,93936.49999999999
5.574869999999999e-6,89239.8
5.59453e-6,84909.8
5.61419e-6,80964.50000000001
5.64369e-6,75673.4
5.67346e-6,70988.2
5.703369999999999e-6,66844.09999999999
5.733279999999999e-6,63181.1
5.76361e-6,59886.799999999996
5.79395e-6,56956.4
5.824419999999999e-6,54328.700000000004
5.85518e-6,51955.299999999996
5.8962e-6,49164.700000000004
5.9377899999999994e-6,46705.2
5.979379999999999e-6,44559.6
6.02156e-6,42654.7
6.0637399999999995e-6,40981.8
6.10651e-6,39488.6
6.149289999999999e-6,38172.299999999996
6.214349999999999e-6,36450.6
6.2800299999999996e-6,34993.2
6.34633e-6,33757.4
6.41324e-6,32706.8
6.4811e-6,31807.699999999997
6.5496e-6,31040.800000000003
6.642e-6,30189.4
6.73571e-6,29499.5
6.830739999999999e-6,28942.100000000002
6.975629999999999e-6,28306.9
7.12394e-6,27863.1
7.27505e-6,27566.199999999997
7.4817799999999995e-6,27347.399999999998
7.67151e-6,27287.2
7.94515e-6,27367.8
8.28619e-6,27660.100000000002
8.76379e-6,28303.899999999998
9.333849999999999e-6,29308.3
1.00111e-5,30740.3
1.07375e-5,32519.2
1.1436500000000001e-5,34462.6
1.2095700000000002e-5,36522.2
1.27033e-5,38646.0
1.3342000000000002e-5,41153.6
1.39147e-5,43682.100000000006
1.4410300000000002e-5,46126.8
1.49243e-5,48959.5
1.53484e-5,51563.600000000006
1.57846e-5,54548.50000000001
1.6233100000000002e-5,57990.1
1.65774e-5,60942.7
1.6929900000000002e-5,64283.9
1.7289000000000003e-5,68089.9
1.7656600000000003e-5,72484.40000000001
1.79057e-5,75793.9
1.8158300000000002e-5,79441.9
1.84145e-5,83546.8
1.8674300000000002e-5,88163.59999999999
1.89377e-5,93391.3
1.9204900000000003e-5,99356.7
1.9407700000000004e-5,104407.99999999999
1.9612300000000002e-5,110045.0
1.9819800000000003e-5,116402.99999999999
2.00293e-5,123588.00000000001
2.02407e-5,131768.0
2.0383e-5,137886.0
2.0526300000000004e-5,144624.0
2.06706e-5,152076.0
2.08159e-5,160358.0
2.0962200000000004e-5,169592.0
2.1109500000000002e-5,179939.0
2.12579e-5,191665.0
2.13697e-5,201490.0
2.1482600000000003e-5,212401.99999999997
2.15955e-5,224461.00000000003
2.17094e-5,237978.99999999997
2.1823800000000003e-5,253144.0
2.1938300000000003e-5,270168.0
2.20544e-5,289678.0
2.21317e-5,304151.0
2.22091e-5,319977.0
2.2287000000000002e-5,337467.0
2.23655e-5,356877.0
2.2444000000000004e-5,378357.0
2.2522400000000003e-5,402220.0
2.26015e-5,429033.99999999994
2.26611e-5,451424.99999999994
2.27208e-5,475949.00000000006
2.27805e-5,502909.0
2.2840200000000002e-5,532635.0
2.2900200000000005e-5,565670.0
2.29607e-5,602711.0
2.3021200000000002e-5,644057.0
2.3081700000000003e-5,690453.0
2.31221e-5,724641.0
2.3162400000000004e-5,761804.0
2.32028e-5,802307.0000000001
2.32495e-5,853949.0000000001
2.32963e-5,911405.0000000001
2.3343e-5,975606.0
2.3389700000000004e-5,1.04768e6
2.34209e-5,1.10078e6
2.3452000000000005e-5,1.15846e6
2.3482300000000004e-5,1.21935e6
2.35125e-5,1.28567e6
2.3542700000000004e-5,1.35812e6
2.3573000000000003e-5,1.43749e6
2.3603200000000005e-5,1.5247e6
2.3633400000000003e-5,1.62085e6
2.36636e-5,1.72722e6
2.3693900000000004e-5,1.84534e6
2.3715700000000004e-5,1.93897e6
2.37375e-5,2.04048e6
2.37594e-5,2.15081e6
2.3781200000000002e-5,2.27101e6
2.3803000000000002e-5,2.40234e6
2.3824900000000003e-5,2.54624e6
2.38467e-5,2.70441e6
2.38685e-5,2.87881e6
2.38907e-5,3.07492e6
2.3912900000000003e-5,3.29307e6
2.3929500000000002e-5,3.4732e6
2.3946100000000004e-5,3.66937e6
2.39639e-5,3.89943e6
2.3984100000000003e-5,4.1883299999999995e6
2.4004200000000003e-5,4.51208e6
2.4017700000000002e-5,4.75009e6
2.40311e-5,5.00812e6
2.4044500000000003e-5,5.28842e6
2.4058000000000002e-5,5.59354e6
2.40714e-5,5.92637e6
2.40848e-5,6.29018e6
2.4098300000000003e-5,6.68867e6
2.41117e-5,7.126e6
2.4125200000000004e-5,7.60685e6
2.4138600000000003e-5,8.13644e6
2.4152000000000002e-5,8.72055e6
2.41655e-5,9.3655e6
2.41789e-5,1.0078100000000002e7
2.4192300000000006e-5,1.08657e7
2.4205800000000005e-5,1.17358e7
2.4219200000000004e-5,1.26959e7
2.4232600000000002e-5,1.37533e7
2.42461e-5,1.49147e7
2.42595e-5,1.61853e7
2.4272900000000003e-5,1.75686e7
2.4286400000000002e-5,1.90655e7
2.42998e-5,2.06734e7
2.43132e-5,2.23854e7
2.43334e-5,2.51218e7
2.4367000000000002e-5,2.9956299999999996e7
2.4393200000000002e-5,3.36968e7
2.44113e-5,3.60977e7
2.4423400000000004e-5,3.75486e7
2.4435500000000003e-5,3.88412e7
2.4448900000000002e-5,4.0054e7
2.44624e-5,4.09949e7
2.44758e-5,4.16331e7
2.44893e-5,4.19464e7
2.4495300000000002e-5,4.19779e7
2.45085e-5,4.18077e7
2.45208e-5,4.13624e7
2.4533600000000002e-5,4.061009999999999e7
2.4547e-5,3.95325e7
2.45584e-5,3.84074e7
2.4572600000000003e-5,3.67899e7
2.4586700000000003e-5,3.49684e7
2.4604800000000002e-5,3.24126e7
2.4658500000000005e-5,2.44218e7
2.46787e-5,2.1597e7
2.46921e-5,1.98314e7
2.47056e-5,1.81753e7
2.4719000000000005e-5,1.6635899999999998e7
2.4732400000000004e-5,1.52161e7
2.4742500000000002e-5,1.42293e7
2.47526e-5,1.3308e7
2.4762700000000003e-5,1.2450000000000002e7
2.47727e-5,1.1652800000000002e7
2.47828e-5,1.09134e7
2.4792900000000004e-5,1.02284e7
2.4803000000000003e-5,9.59457e6
2.4813e-5,9.0084e6
2.4823100000000003e-5,8.46652e6
2.48332e-5,7.96563e6
2.48433e-5,7.50255e6
2.48534e-5,7.07429e6
2.48668e-5,6.55254e6
2.4880200000000003e-5,6.08146e6
2.4893700000000002e-5,5.65546e6
2.49071e-5,5.26953e6
2.49205e-5,4.91924e6
2.4934e-5,4.60064e6
2.4947400000000004e-5,4.31027e6
2.4960800000000003e-5,4.04505e6
2.4974300000000002e-5,3.80231e6
2.49877e-5,3.57968e6
2.50011e-5,3.37507e6
2.50146e-5,3.18666e6
2.5031400000000002e-5,2.97147e6
2.50465e-5,2.79502e6
2.50616e-5,2.63306e6
2.5076700000000003e-5,2.48409e6
2.5091800000000003e-5,2.34679e6
2.51096e-5,2.19846e6
2.51251e-5,2.08025e6
2.5140500000000004e-5,1.97082e6
2.5163700000000004e-5,1.82135e6
2.51869e-5,1.68736e6
2.52101e-5,1.56683e6
2.52255e-5,1.49309e6
2.5245700000000005e-5,1.40403e6
2.52658e-5,1.32223e6
2.5286e-5,1.24694e6
2.53061e-5,1.1775e6
2.5326300000000005e-5,1.11333e6
2.5346400000000002e-5,1.05392e6
2.53767e-5,972753.0
2.53985e-5,919420.0
2.5422e-5,866390.0
2.5445500000000002e-5,817478.0
2.5469000000000003e-5,772278.0
2.54925e-5,730433.0
2.5516100000000005e-5,691629.0
2.5551300000000004e-5,638521.0
2.55748e-5,606163.0
2.56017e-5,571853.0
2.5628600000000004e-5,540127.0
2.5655400000000002e-5,510738.99999999994
2.56823e-5,483472.0
2.5722600000000003e-5,446132.0
2.5762900000000004e-5,412571.0
2.5804900000000004e-5,381116.0
2.5835100000000003e-5,360429.0
2.58805e-5,332118.0
2.5925800000000002e-5,306693.0
2.59712e-5,283789.0
2.60165e-5,263098.0
2.6050100000000003e-5,249040.99999999997
2.60871e-5,234702.0
2.6124000000000003e-5,221431.99999999997
2.6161000000000002e-5,209134.00000000003
2.6197900000000002e-5,197720.0
2.62533e-5,182087.0
2.63087e-5,168036.0
2.63474e-5,159073.0
2.63877e-5,150377.0
2.6428000000000002e-5,142294.0
2.6488400000000002e-5,131208.0
2.6548900000000003e-5,121231.0
2.6609400000000003e-5,112230.00000000001
2.6670700000000002e-5,103985.0
2.6733600000000004e-5,96331.79999999999
2.6796600000000004e-5,89412.8
