E(MeV),xs(mb)
1.0e-11,3.66987e7
1.03223e-11,3.61211e7
1.06549e-11,3.55529e7
1.0998399999999998e-11,3.49934e7
1.13527e-11,3.4443e7
1.1718599999999999e-11,3.3901e7
1.2096199999999998e-11,3.33677e7
1.24861e-11,3.28426e7
1.2888399999999999e-11,3.2326e7
1.3303799999999998e-11,3.18173e7
1.37325e-11,3.1316799999999996e7
1.41751e-11,3.0823999999999996e7
1.4631799999999997e-11,3.03391e7
1.51034e-11,2.98617e7
1.5590099999999998e-11,2.9392e7
1.6092599999999998e-11,2.89294e7
1.66111e-11,2.8474400000000004e7
1.71465e-11,2.80263e7
1.7699e-11,2.75854e7
1.8269399999999998e-11,2.71513e7
1.88581e-11,2.6724199999999996e7
1.94659e-11,2.63037e7
2.00931e-11,2.58899e7
2.0740699999999998e-11,2.54825e7
2.1408999999999998e-11,2.5081699999999996e7
2.2099099999999997e-11,2.4687e7
2.28111e-11,2.4298700000000004e7
2.3546399999999998e-11,2.39163e7
2.4305099999999997e-11,2.35401e7
2.50884e-11,2.31697e7
2.5896799999999997e-11,2.28052e7
2.67315e-11,2.24464e7
2.75928e-11,2.20932e7
2.8482199999999998e-11,2.17456e7
2.93999e-11,2.1403500000000004e7
3.0347499999999995e-11,2.10668e7
3.13253e-11,2.07353e7
3.2335e-11,2.0409099999999996e7
3.33769e-11,2.0088e7
3.44526e-11,1.97719e7
3.55627e-11,1.94609e7
3.67089e-11,1.91547e7
3.7891799999999997e-11,1.88534e7
3.9113e-11,1.85567e7
4.0373400000000003e-11,1.82648e7
4.1674599999999996e-11,1.79774e7
4.3017399999999996e-11,1.76946e7
4.440389999999999e-11,1.74162e7
4.58347e-11,1.71422e7
4.7311899999999994e-11,1.68725e7
4.883639999999999e-11,1.66071e7
5.0410399999999995e-11,1.63458e7
5.20348e-11,1.60887e7
5.37119e-11,1.58355e7
5.54426e-11,1.55864e7
5.7229499999999995e-11,1.53412e7
5.907359999999999e-11,1.5099800000000002e7
6.09775e-11,1.48623e7
6.29424e-11,1.46285e7
6.497099999999999e-11,1.43983e7
6.70645e-11,1.4171800000000002e7
6.9226e-11,1.3948799999999998e7
7.145659999999999e-11,1.37294e7
7.37596e-11,1.35134e7
7.61364e-11,1.33008e7
7.85902e-11,1.30915e7
8.11227e-11,1.28856e7
8.37372e-11,1.26828e7
8.643549999999999e-11,1.24833e7
8.922119999999998e-11,1.22869e7
9.209619999999999e-11,1.20936e7
9.506439999999999e-11,1.19034e7
9.81277e-11,1.17161e7
1.01291e-10,1.15317e7
1.04554e-10,1.13504e7
1.07924e-10,1.11718e7
1.11402e-10,1.0996e7
1.1499200000000001e-10,1.0823e7
1.1869700000000001e-10,1.06528e7
1.22523e-10,1.04851e7
1.26471e-10,1.03202e7
1.30547e-10,1.0157799999999998e7
1.34754e-10,9.99805e6
1.3909700000000002e-10,9.84072e6
1.43579e-10,9.68593e6
1.48207e-10,9.53352e6
1.52982e-10,9.38356e6
1.57913e-10,9.2359e6
1.6300100000000001e-10,9.09062e6
1.68254e-10,8.94757e6
1.73676e-10,8.80682e6
1.79274e-10,8.66824e6
1.8505000000000002e-10,8.53188e6
1.91014e-10,8.39762e6
1.97169e-10,8.26552e6
2.03524e-10,8.135450000000001e6
2.1008200000000003e-10,8.00747e6
2.16853e-10,7.88146e6
2.2384e-10,7.75747e6
2.31055e-10,7.63539e6
2.385e-10,7.51527e6
2.46187e-10,7.397e6
2.5412e-10,7.28062e6
2.6231e-10,7.16604e6
2.70762e-10,7.0533e6
2.7948900000000003e-10,6.94229e6
2.88494e-10,6.83306e6
2.9779300000000004e-10,6.72552e6
3.07388e-10,6.61969e6
3.1729500000000004e-10,6.5155e6
3.27519e-10,6.41297e6
3.38075e-10,6.31203e6
3.4896900000000003e-10,6.2127e6
3.6021600000000004e-10,6.11491e6
3.7182300000000004e-10,6.01868e6
3.83807e-10,5.92393e6
3.96174e-10,5.83069e6
4.08943e-10,5.7389e6
4.2212e-10,5.64857e6
4.3572499999999996e-10,5.55964e6
4.4976500000000005e-10,5.47212e6
4.6426100000000007e-10,5.38596e6
4.79221e-10,5.30117e6
4.94666e-10,5.21769e6
5.10605e-10,5.13554e6
5.270620000000001e-10,5.05466e6
5.440450000000001e-10,4.97507e6
5.6158e-10,4.89671e6
5.796750000000001e-10,4.8196e6
5.98358e-10,4.74368e6
6.176389999999999e-10,4.66896e6
6.37545e-10,4.59541e6
6.58089e-10,4.52302e6
6.79298e-10,4.45175e6
7.01188e-10,4.38161e6
7.237860000000001e-10,4.31256e6
7.47109e-10,4.2446e6
7.71188e-10,4.1776999999999995e6
7.960380000000001e-10,4.11186e6
8.21693e-10,4.0470300000000005e6
8.48171e-10,3.98324e6
8.75507e-10,3.92043e6
9.037190000000002e-10,3.85861e6
9.32845e-10,3.79776e6
9.62904e-10,3.73786e6
9.93937e-10,3.67889e6
1.0259700000000001e-9,3.62086e6
1.05903e-9,3.56372e6
1.09316e-9,3.50749e6
1.12839e-9,3.45213e6
1.16475e-9,3.39764e6
1.2022900000000002e-9,3.344e6
1.2410300000000002e-9,3.2912e6
1.28103e-9,3.23922e6
1.3223100000000002e-9,3.18806e6
1.36492e-9,3.13769e6
1.4089000000000002e-9,3.08812e6
1.4543100000000001e-9,3.03931e6
1.5011699999999999e-9,2.99127e6
1.5495600000000002e-9,2.94397e6
1.5994900000000002e-9,2.89742e6
1.6510400000000001e-9,2.85159e6
1.7042400000000001e-9,2.80648e6
1.75917e-9,2.76207e6
1.81585e-9,2.71835e6
1.87438e-9,2.67532e6
1.9347700000000003e-9,2.63295e6
1.99713e-9,2.59124e6
2.06148e-9,2.55019e6
2.1279200000000002e-9,2.50977e6
2.19649e-9,2.46999e6
2.26728e-9,2.43082e6
2.3403400000000002e-9,2.39226e6
2.4157700000000002e-9,2.3543e6
2.49362e-9,2.31693e6
2.5739800000000002e-9,2.28014e6
2.65692e-9,2.24393e6
2.7425500000000002e-9,2.20827e6
2.8309300000000003e-9,2.17318e6
2.92217e-9,2.13862e6
3.01633e-9,2.10461e6
3.11354e-9,2.07112e6
3.21387e-9,2.03815e6
3.3174500000000004e-9,2.00569e6
3.42435e-9,1.97374e6
3.53471e-9,1.94228e6
3.6486100000000003e-9,1.91131e6
3.7662000000000005e-9,1.88082e6
3.88757e-9,1.8508e6
4.01286e-9,1.82124e6
4.14217e-9,1.79215e6
4.2756600000000005e-9,1.7635e6
4.41344e-9,1.7353e6
4.55568e-9,1.70753e6
4.7024800000000005e-9,1.6802e6
4.85404e-9,1.65328e6
5.01045e-9,1.62679e6
5.17193e-9,1.6007e6
5.338590000000001e-9,1.57502e6
5.510650000000001e-9,1.54973e6
5.688220000000001e-9,1.52484e6
5.871540000000001e-9,1.50033e6
6.06075e-9,1.4762e6
6.256080000000001e-9,1.45244e6
6.4576700000000005e-9,1.42906e6
6.665790000000001e-9,1.40603e6
6.8805900000000005e-9,1.38336e6
7.1023400000000005e-9,1.36104e6
7.33121e-9,1.33907e6
7.56748e-9,1.31743e6
7.81133e-9,1.29613e6
8.06308e-9,1.27516e6
8.32291e-9,1.25451e6
8.59114e-9,1.23418e6
8.86798e-9,1.21416e6
9.15378e-9,1.19445e6
9.44875e-9,1.17505e6
9.753270000000001e-9,1.15595e6
1.0067600000000001e-8,1.13714e6
1.0392e-8,1.11862e6
1.07269e-8,1.10039e6
1.10726e-8,1.08244e6
1.1429400000000001e-8,1.06477e6
1.17978e-8,1.0473699999999999e6
1.21779e-8,1.03024e6
1.25704e-8,1.0133700000000001e6
1.29755e-8,996768.0
1.33937e-8,980416.0
1.3825300000000001e-8,964317.9999999999
1.42708e-8,948464.0000000001
1.4730700000000002e-8,932856.0
1.52054e-8,917483.0
1.56954e-8,902346.0
1.62012e-8,887437.0000000001
1.67233e-8,872756.0
1.72623e-8,858294.0000000001
1.78185e-8,844053.0000000001
1.83928e-8,830023.0000000001
1.89855e-8,816206.0
1.9597400000000002e-8,802594.0
2.02289e-8,789187.0
2.0880800000000003e-8,775978.0
2.15537e-8,762966.0
2.2248299999999998e-8,750145.0
2.2965200000000002e-8,737515.0
2.37054e-8,725069.0
2.4469300000000002e-8,712806.0
2.52522e-8,700806.0
2.5299999999999998e-8,700092.0
2.61154e-8,688192.0
2.69569e-8,676468.0
2.7825700000000004e-8,664911.0
2.8722400000000002e-8,653523.0
2.9648e-8,642296.0
3.06034e-8,631231.0
3.1589700000000004e-8,620322.0
3.2538900000000006e-8,610280.0
3.35165e-8,600371.0
3.45235e-8,590594.0
3.55608e-8,580947.0
3.66293e-8,571427.0
3.7729800000000003e-8,562034.0
3.88635e-8,552766.0
4.00312e-8,543621.0
4.12339e-8,534598.0
4.24728e-8,525695.0
4.3749000000000004e-8,516912.00000000006
4.50634e-8,508247.0
4.6417400000000006e-8,499699.0
4.78121e-8,491266.0
4.92486e-8,482948.0
5.07283e-8,474744.0
5.22525e-8,466653.0
5.38225e-8,458675.00000000006
5.5439600000000004e-8,450807.99999999994
5.7105300000000004e-8,443053.0
5.88211e-8,435409.0
6.05885e-8,427874.99999999994
6.240890000000001e-8,420450.00000000006
6.4284e-8,413133.0
6.62155e-8,405924.0
6.820500000000001e-8,398822.0
7.02543e-8,391829.0
7.22121e-8,385433.0
7.422480000000001e-8,379129.0
7.629330000000001e-8,372921.0
7.84198e-8,366806.0
8.060520000000001e-8,360787.0
8.285180000000001e-8,354862.0
8.516069999999999e-8,349034.0
8.753439999999999e-8,343303.0
8.99737e-8,337670.0
9.24815e-8,332135.0
9.50588e-8,326701.0
9.770830000000001e-8,321368.0
1.00431e-7,316139.0
1.0322999999999999e-7,311015.0
1.0610699999999999e-7,305999.0
1.0883400000000001e-7,301467.0
1.1163099999999999e-7,297031.0
1.145e-7,292694.0
1.17442e-7,288459.0
1.2046099999999998e-7,284329.0
1.23556e-7,280308.0
1.26731e-7,276400.0
1.2998799999999999e-7,272610.0
1.3304800000000001e-7,269244.0
1.36178e-7,265986.0
1.3938299999999997e-7,262842.0
1.42663e-7,259817.0
1.4601999999999998e-7,256917.00000000003
1.49456e-7,254151.00000000003
1.5264999999999998e-7,251758.00000000003
1.55912e-7,249488.00000000003
1.59244e-7,247350.0
1.6264700000000001e-7,245350.0
1.6612299999999998e-7,243499.0
1.6931499999999998e-7,241968.0
1.7256800000000001e-7,240574.00000000003
1.75884e-7,239324.0
1.7926299999999998e-7,238230.0
1.82707e-7,237299.00000000003
1.8582399999999998e-7,236619.0
1.8899399999999998e-7,236085.0
1.92219e-7,235707.00000000003
1.95498e-7,235492.0
1.9798e-7,235442.99999999997
2.01344e-7,235532.0
2.0477899999999998e-7,235808.00000000003
2.08272e-7,236276.00000000003
2.11825e-7,236942.0
2.1543899999999997e-7,237810.0
2.1911399999999999e-7,238882.0
2.22852e-7,240153.99999999997
2.2665399999999999e-7,241621.0
2.31008e-7,243488.00000000003
2.3594499999999996e-7,245795.0
2.49808e-7,252664.0
2.5407e-7,254632.0
2.57858e-7,256214.0
2.6115e-7,257412.99999999997
2.63927e-7,258268.0
2.66731e-7,258964.00000000003
2.69516e-7,259466.00000000003
2.71754e-7,259720.0
2.7406199999999996e-7,259835.0
2.74641e-7,259839.00000000003
2.77203e-7,259734.0
2.79558e-7,259456.0
2.81932e-7,258995.0
2.84327e-7,258343.0
2.86742e-7,257493.00000000003
2.8917799999999994e-7,256443.00000000003
2.91634e-7,255191.0
2.94111e-7,253735.0
2.96609e-7,252080.0
2.99129e-7,250229.0
3.0167000000000003e-7,248190.0
3.04232e-7,245969.00000000003
3.06816e-7,243579.0
3.09422e-7,241028.99999999997
3.1271e-7,237641.0
3.16035e-7,234051.0
3.2007e-7,229523.0
3.2553e-7,223192.0
3.38159e-7,208299.0
3.43201e-7,202462.0
3.47583e-7,197508.0
3.5202099999999997e-7,192631.0
3.55763e-7,188641.0
3.59544e-7,184734.0
3.6336599999999995e-7,180915.0
3.67227e-7,177195.0
3.71131e-7,173575.0
3.74284e-7,170755.0
3.77463e-7,168003.0
3.80669e-7,165321.0
3.83902e-7,162709.0
3.87163e-7,160165.0
3.90452e-7,157690.0
3.9376799999999996e-7,155283.0
3.9711299999999996e-7,152943.0
4.0048599999999995e-7,150669.0
4.03887e-7,148459.0
4.0731799999999997e-7,146311.0
4.10778e-7,144225.0
4.1514300000000003e-7,141702.0
4.1955600000000003e-7,139267.0
4.24015e-7,136920.0
4.28522e-7,134655.0
4.3307599999999995e-7,132470.0
4.3768e-7,130360.00000000001
4.4233099999999994e-7,128324.0
4.470329999999999e-7,126357.00000000001
4.5178399999999994e-7,124457.0
4.56587e-7,122621.0
4.61439e-7,120845.0
4.6634399999999993e-7,119127.99999999999
4.713e-7,117466.0
4.7630999999999996e-7,115858.0
4.81372e-7,114300.0
4.864889999999999e-7,112791.0
4.92701e-7,111042.0
4.98991e-7,109356.00000000001
5.05362e-7,107731.0
5.11815e-7,106163.00000000001
5.1835e-7,104651.0
5.249679999999999e-7,103190.0
5.31671e-7,101780.0
5.38459e-7,100417.0
5.45334e-7,99100.3
5.52297e-7,97827.40000000001
5.60531e-7,96395.8
5.688909999999999e-7,95018.8
5.77373e-7,93695.2
5.85984e-7,92422.1
5.947209999999999e-7,91198.9
6.0359e-7,90023.2
6.125899999999999e-7,88894.3
6.217259999999999e-7,87809.9
6.309949999999999e-7,86770.0
6.40406e-7,85773.6
6.499539999999999e-7,84821.1
6.59648e-7,83911.3
6.694819999999999e-7,83044.4
6.79467e-7,82219.9
6.89598e-7,81439.1
6.99882e-7,80702.4
7.10317e-7,80011.4
7.209109999999999e-7,79366.7
7.31659e-7,78770.0
7.425709999999999e-7,78223.0
7.53643e-7,77728.59999999999
7.632649999999999e-7,77349.4
7.7301e-7,77013.5
7.8288e-7,76723.40000000001
7.928759999999999e-7,76482.3
8.02999e-7,76294.0
8.11536e-7,76180.7
8.201599999999998e-7,76110.1
8.284610000000001e-7,76085.59999999999
8.368449999999998e-7,76106.1
8.457409999999999e-7,76180.1
8.54728e-7,76312.7
8.61988e-7,76464.8
8.693099999999999e-7,76661.40000000001
8.76694e-7,76906.2
8.8414e-7,77203.5
8.916499999999999e-7,77558.0
8.99224e-7,77975.3
9.049480000000001e-7,78333.1
9.107049999999998e-7,78732.2
9.165029999999999e-7,79176.5
9.22333e-7,79668.7
9.28205e-7,80213.5
9.341089999999999e-7,80814.5
9.40056e-7,81477.2
9.46036e-7,82206.1
9.520580000000001e-7,83008.1
9.56093e-7,83585.99999999999
9.601449999999999e-7,84201.20000000001
9.64214e-7,84855.90000000001
9.68301e-7,85552.49999999999
9.72404e-7,86293.6
9.76525e-7,87082.09999999999
9.806639999999998e-7,87920.9
9.8482e-7,88813.20000000001
9.889939999999998e-7,89762.5
9.93185e-7,90772.5
9.97394e-7,91847.1
1.00162e-6,92990.3
1.00587e-6,94206.59999999999
1.00977e-6,95388.8
1.01333e-6,96520.7
1.01688e-6,97707.70000000001
1.02044e-6,98952.2
1.02402e-6,100266.00000000001
1.0276199999999998e-6,101652.00000000001
1.03123e-6,103104.0
1.0348299999999998e-6,104624.99999999999
1.0384599999999998e-6,106226.0
1.0421199999999999e-6,107912.99999999999
1.0457799999999999e-6,109674.99999999999
1.04943e-6,111513.0
1.05311e-6,113440.99999999999
1.0568200000000001e-6,115460.0
1.0605299999999998e-6,117557.0
1.06609e-6,120839.99999999999
1.07173e-6,124326.0
1.0773699999999999e-6,127943.0
1.0811299999999999e-6,130410.0
1.09639e-6,140514.0
1.10176e-6,143922.0
1.1057999999999999e-6,146341.0
1.1090899999999998e-6,148198.0
1.113e-6,150220.0
1.11593e-6,151586.0
1.11886e-6,152803.0
1.12179e-6,153853.0
1.12406e-6,154543.0
1.12667e-6,155184.0
1.12928e-6,155657.0
1.13188e-6,155951.0
1.13488e-6,156057.0
1.13764e-6,155925.0
1.14033e-6,155578.0
1.1430299999999999e-6,155010.0
1.14572e-6,154219.0
1.14842e-6,153206.0
1.15111e-6,151972.0
1.15365e-6,150615.0
1.15618e-6,149074.0
1.15872e-6,147355.0
1.16126e-6,145469.0
1.1646399999999999e-6,142713.0
1.16772e-6,139984.0
1.1708e-6,137071.0
1.1749099999999998e-6,132946.0
1.17902e-6,128602.0
1.18524e-6,121751.00000000001
1.19773e-6,107731.0
1.2019599999999998e-6,103109.0
1.20618e-6,98616.6
1.21041e-6,94284.3
1.21463e-6,90135.90000000001
1.21862e-6,86401.29999999999
1.22261e-6,82855.4
1.2265999999999998e-6,79503.4
1.2296e-6,77118.09999999999
1.23271e-6,74755.1
1.23588e-6,72468.8
1.23905e-6,70303.9
1.24222e-6,68258.40000000001
1.24539e-6,66330.2
1.24913e-6,64203.299999999996
1.2523899999999998e-6,62480.6
1.25564e-6,60873.600000000006
1.25889e-6,59379.7
1.26224e-6,57957.299999999996
1.26569e-6,56613.7
1.26913e-6,55388.299999999996
1.27258e-6,54277.4
1.2760199999999999e-6,53276.6
1.27947e-6,52380.4
1.2829099999999999e-6,51582.100000000006
1.2863599999999998e-6,50873.299999999996
1.2911799999999999e-6,50013.3
1.29601e-6,49279.799999999996
1.30118e-6,48596.3
1.32254e-6,46100.5
1.33184e-6,44917.7
1.35217e-6,42201.1
1.3625100000000001e-6,40918.9
1.37181e-6,39880.5
1.3817999999999998e-6,38894.4
1.3921399999999998e-6,38005.4
1.4024799999999998e-6,37232.2
1.41281e-6,36556.700000000004
1.4231499999999999e-6,35962.9
1.43693e-6,35275.6
1.45401e-6,34555.5
1.47452e-6,33837.5
1.4953299999999999e-6,33231.9
1.5164200000000001e-6,32712.3
1.5485899999999998e-6,32055.4
1.5815099999999999e-6,31505.6
1.62645e-6,30898.2
1.6726700000000001e-6,30405.7
1.7201999999999999e-6,30022.7
1.76908e-6,29778.3
1.80132e-6,29734.4
1.8267299999999998e-6,29801.8
1.8525e-6,30014.6
1.8721e-6,30331.100000000002
1.88526e-6,30659.800000000003
1.8985199999999998e-6,31130.300000000003
1.90998e-6,31699.3
1.91965e-6,32347.199999999997
1.92805e-6,33084.799999999996
1.93517e-6,33884.9
1.94128e-6,34740.2
1.9463699999999997e-6,35607.0
1.95146e-6,36650.4
1.95655e-6,37914.0
1.96037e-6,39038.1
1.96418e-6,40342.6
1.968e-6,41857.2
1.9718199999999996e-6,43613.7
1.9756299999999998e-6,45645.3
1.9794499999999997e-6,47983.6
1.98327e-6,50656.299999999996
1.9870899999999997e-6,53682.8
1.9909e-6,57069.6
1.99472e-6,60805.100000000006
1.99981e-6,66265.09999999999
2.00744e-6,75127.8
2.0150800000000003e-6,83953.79999999999
2.0189e-6,87965.5
2.0232199999999997e-6,91903.90000000001
2.0262699999999996e-6,94171.4
2.03009e-6,96285.4
2.03322e-6,97350.9
2.0362499999999998e-6,97769.8
2.03696e-6,97778.9
2.04046e-6,97328.8
2.04409e-6,96017.3
2.0476499999999998e-6,93951.1
2.0506999999999997e-6,91635.8
2.05478e-6,87899.9
2.05987e-6,82465.7
2.07259e-6,67598.2
2.07768e-6,61983.49999999999
2.0815e-6,58098.200000000004
2.08531e-6,54542.6
2.08913e-6,51336.399999999994
2.09295e-6,48480.0
2.09676e-6,45959.700000000004
2.1005799999999997e-6,43752.1
2.1044e-6,41828.200000000004
2.10822e-6,40156.799999999996
2.11203e-6,38706.4
2.11585e-6,37447.3
2.12094e-6,36019.8
2.12603e-6,34828.9
2.13112e-6,33828.5
2.13824e-6,32678.899999999998
2.14435e-6,31874.4
2.1524999999999997e-6,30996.800000000003
2.1638799999999996e-6,30041.5
2.1752699999999998e-6,29307.699999999997
2.19056e-6,28555.3
2.20596e-6,27978.3
2.22927e-6,27323.4
2.26073e-6,26689.8
2.2926199999999996e-6,26213.5
2.34125e-6,25658.8
2.44046e-6,24800.8
2.5517199999999998e-6,23866.3
2.61211e-6,23215.3
2.6598e-6,22662.9
2.67966e-6,22539.600000000002
2.68364e-6,22536.2
2.6947599999999998e-6,22584.9
2.7066799999999997e-6,22764.3
2.7156199999999996e-6,23012.100000000002
2.72576e-6,23434.7
2.73688e-6,24090.4
2.74483e-6,24682.2
2.75341e-6,25425.8
2.76787e-6,26859.199999999997
2.79251e-6,29407.899999999998
2.80681e-6,30692.8
2.8187299999999998e-6,31575.4
2.8306499999999997e-6,32284.1
2.8425699999999997e-6,32844.799999999996
2.86642e-6,33684.2
2.9029699999999996e-6,34833.4
2.92681e-6,35815.700000000004
2.94102e-6,36568.1
2.95524e-6,37486.5
2.9694999999999997e-6,38615.2
2.9837699999999997e-6,40001.0
2.99565e-6,41397.2
3.00754e-6,43060.0
3.01943e-6,45042.799999999996
3.03132e-6,47406.9
3.03924e-6,49226.9
3.04717e-6,51263.6
3.05509e-6,53532.4
3.06302e-6,56042.1
3.0709399999999995e-6,58790.899999999994
3.07887e-6,61761.0
3.09076e-6,66537.9
3.11057e-6,74646.2
3.11849e-6,77563.6
3.12642e-6,80052.29999999999
3.1323599999999996e-6,81537.2
3.1375099999999995e-6,82504.1
3.14425e-6,83261.29999999999
3.1493e-6,83422.5
3.15396e-6,83250.7
3.1598999999999996e-6,82584.59999999999
3.16505e-6,81615.09999999999
3.17159e-6,79899.5
3.1781299999999997e-6,77708.2
3.18427e-6,75296.5
3.1922e-6,71817.5
3.21558e-6,60765.1
3.22627e-6,56042.1
3.23341e-6,53169.8
3.24054e-6,50552.9
3.24847e-6,47957.0
3.25639e-6,45685.1
3.26432e-6,43720.4
3.27224e-6,42039.0
3.28017e-6,40613.9
3.2880899999999996e-6,39417.5
3.29602e-6,38424.200000000004
3.3039399999999997e-6,37610.6
3.31583e-6,36683.3
3.3277199999999996e-6,36059.299999999996
3.3395999999999998e-6,35696.8
3.3514899999999997e-6,35566.7
3.36219e-6,35633.0
3.3728899999999997e-6,35866.4
3.38398e-6,36284.5
3.39587e-6,36938.9
3.40776e-6,37824.200000000004
3.4183799999999996e-6,38833.3
3.42836e-6,39997.5
3.4383499999999994e-6,41404.6
3.4479499999999997e-6,43029.200000000004
3.45756e-6,44972.200000000004
3.46477e-6,46678.49999999999
3.4719699999999996e-6,48637.7
3.47918e-6,50893.6
3.48638e-6,53499.299999999996
3.4935799999999998e-6,56518.4
3.49839e-6,58797.4
3.50319e-6,61318.700000000004
3.50799e-6,64109.6
3.5127999999999996e-6,67199.40000000001
3.5173599999999997e-6,70439.2
3.52168e-6,73806.3
3.5260099999999996e-6,77484.7
3.53033e-6,81493.59999999999
3.5348899999999995e-6,86100.7
3.5396999999999998e-6,91379.0
3.5445e-6,97098.6
3.5493e-6,103245.00000000001
3.5565099999999996e-6,113185.0
3.56611e-6,127410.0
3.5790799999999996e-6,146789.0
3.58521e-6,155156.0
3.5896499999999996e-6,160582.0
3.59445e-6,165628.0
3.59926e-6,169636.0
3.6040599999999997e-6,172439.0
3.60781e-6,173706.0
3.61163e-6,174117.0
3.61607e-6,173449.0
3.6199099999999997e-6,171877.0
3.6242299999999995e-6,169038.0
3.6290399999999997e-6,164636.0
3.63348e-6,159515.0
3.63756e-6,154040.0
3.6436899999999997e-6,144729.0
3.6513599999999996e-6,131819.0
3.66492e-6,108105.0
3.67049e-6,98775.8
3.67606e-6,89980.3
3.6802399999999998e-6,83807.50000000001
3.68441e-6,78033.8
3.68943e-6,71653.4
3.69444e-6,65874.0
3.69918e-6,60953.1
3.70335e-6,57024.100000000006
3.70753e-6,53458.50000000001
3.71096e-6,50788.0
3.7150199999999997e-6,47892.4
3.71817e-6,45840.50000000001
3.72229e-6,43381.9
3.72647e-6,41131.200000000004
3.7306499999999996e-6,39099.1
3.7348299999999998e-6,37262.7
3.73901e-6,35601.4
3.74458e-6,33626.8
3.74959e-6,32055.4
3.7545999999999996e-6,30653.600000000002
3.7596199999999997e-6,29400.300000000003
3.76463e-6,28277.5
3.7702e-6,27164.100000000002
3.77577e-6,26174.2
3.78413e-6,24887.399999999998
3.7924799999999996e-6,23800.3
3.80084e-6,22877.9
3.8092e-6,22091.6
