E(MeV),xs(mb)
1.0e-11,2.1109e6
1.03223e-11,2.07769e6
1.06549e-11,2.04502e6
1.0998399999999998e-11,2.0128499999999998e6
1.13527e-11,1.9812e6
1.1718599999999999e-11,1.95004e6
1.2096199999999998e-11,1.91938e6
1.24861e-11,1.88919e6
1.2888399999999999e-11,1.85948e6
1.3303799999999998e-11,1.83023e6
1.37325e-11,1.80146e6
1.41751e-11,1.77312e6
1.4631799999999997e-11,1.74525e6
1.51034e-11,1.7178e6
1.5590099999999998e-11,1.69079e6
1.6092599999999998e-11,1.6642e6
1.66111e-11,1.63804e6
1.71465e-11,1.61228e6
1.7699e-11,1.58693e6
1.8269399999999998e-11,1.56198e6
1.88581e-11,1.53742e6
1.94659e-11,1.51325e6
2.00931e-11,1.48946e6
2.0740699999999998e-11,1.46604e6
2.1408999999999998e-11,1.44299e6
2.2099099999999997e-11,1.42031e6
2.28111e-11,1.39798e6
2.3546399999999998e-11,1.376e6
2.4305099999999997e-11,1.35438e6
2.50884e-11,1.33308e6
2.5896799999999997e-11,1.31213e6
2.67315e-11,1.29151e6
2.75928e-11,1.27121e6
2.8482199999999998e-11,1.25123e6
2.93999e-11,1.23157e6
3.0347499999999995e-11,1.21221e6
3.13253e-11,1.19316e6
3.2335e-11,1.17441e6
3.33769e-11,1.15596e6
3.44526e-11,1.13779e6
3.55627e-11,1.11991e6
3.67089e-11,1.10232e6
3.7891799999999997e-11,1.085e6
3.9113e-11,1.06795e6
4.0373400000000003e-11,1.05118e6
4.1674599999999996e-11,1.0346599999999999e6
4.3017399999999996e-11,1.01841e6
4.440389999999999e-11,1.00241e6
4.58347e-11,986668.0
4.7311899999999994e-11,971170.0
4.883639999999999e-11,955918.9999999999
5.0410399999999995e-11,940906.0
5.20348e-11,926132.0
5.37119e-11,911588.0000000001
5.54426e-11,897277.0
5.7229499999999995e-11,883188.0
5.907359999999999e-11,869323.9999999999
6.09775e-11,855676.0000000001
6.29424e-11,842245.9999999999
6.497099999999999e-11,829025.0
6.70645e-11,816015.0
6.9226e-11,803208.0
7.145659999999999e-11,790605.0
7.37596e-11,778199.0
7.61364e-11,765990.0
7.85902e-11,753972.0
8.11227e-11,742146.0
8.37372e-11,730505.0
8.643549999999999e-11,719049.0
8.922119999999998e-11,707772.0
9.209619999999999e-11,696674.0
9.506439999999999e-11,685750.0
9.81277e-11,675001.0
1.01291e-10,664418.0
1.04554e-10,654006.0
1.07924e-10,643755.0
1.11402e-10,633670.0
1.1499200000000001e-10,623739.0
1.1869700000000001e-10,613970.0
1.22523e-10,604351.0
1.26471e-10,594888.0
1.30547e-10,585571.0
1.34754e-10,576404.0
1.3909700000000002e-10,567379.0
1.43579e-10,558500.0
1.48207e-10,549758.0
1.52982e-10,541158.0
1.57913e-10,532690.0
1.6300100000000001e-10,524359.0
1.68254e-10,516157.0
1.73676e-10,508087.99999999994
1.79274e-10,500143.99999999994
1.8505000000000002e-10,492328.0
1.91014e-10,484633.0
1.97169e-10,477062.0
2.03524e-10,469609.0
2.1008200000000003e-10,462276.00000000006
2.16853e-10,455056.99999999994
2.2384e-10,447954.0
2.31055e-10,440962.00000000006
2.385e-10,434083.00000000006
2.46187e-10,427311.0
2.5412e-10,420648.0
2.6231e-10,414089.0
2.70762e-10,407634.99999999994
2.7948900000000003e-10,401281.99999999994
2.88494e-10,395032.0
2.9779300000000004e-10,388879.0
3.07388e-10,382825.0
3.1729500000000004e-10,376866.0
3.27519e-10,371003.0
3.38075e-10,365231.0
3.4896900000000003e-10,359553.0
3.6021600000000004e-10,353963.0
3.7182300000000004e-10,348463.0
3.83807e-10,343050.0
3.96174e-10,337723.0
4.08943e-10,332481.0
4.2212e-10,327322.0
4.3572499999999996e-10,322245.0
4.4976500000000005e-10,317249.0
4.6426100000000007e-10,312332.0
4.79221e-10,307494.0
4.94666e-10,302732.0
5.10605e-10,298046.0
5.270620000000001e-10,293434.0
5.440450000000001e-10,288897.0
5.6158e-10,284431.0
5.796750000000001e-10,280037.0
5.98358e-10,275712.0
6.176389999999999e-10,271456.0
6.37545e-10,267268.0
6.58089e-10,263147.0
6.79298e-10,259091.0
7.01188e-10,255101.00000000003
7.237860000000001e-10,251173.0
7.47109e-10,247308.0
7.71188e-10,243505.0
7.960380000000001e-10,239763.0
8.21693e-10,236079.99999999997
8.48171e-10,232456.0
8.75507e-10,228889.0
9.037190000000002e-10,225380.0
9.32845e-10,221925.99999999997
9.62904e-10,218528.0
9.93937e-10,215184.0
1.0259700000000001e-9,211893.00000000003
1.05903e-9,208653.99999999997
1.09316e-9,205467.99999999997
1.12839e-9,202332.0
1.16475e-9,199246.0
1.2022900000000002e-9,196210.0
1.2410300000000002e-9,193222.0
1.28103e-9,190281.0
1.3223100000000002e-9,187388.0
1.36492e-9,184540.0
1.4089000000000002e-9,181738.0
1.4543100000000001e-9,178981.0
1.5011699999999999e-9,176268.0
1.5495600000000002e-9,173598.0
1.5994900000000002e-9,170970.0
1.6510400000000001e-9,168385.0
1.7042400000000001e-9,165841.0
1.75917e-9,163337.0
1.81585e-9,160873.0
1.87438e-9,158448.0
1.9347700000000003e-9,156063.0
1.99713e-9,153715.0
2.06148e-9,151404.0
2.1279200000000002e-9,149131.0
2.19649e-9,146893.0
2.26728e-9,144692.0
2.3403400000000002e-9,142525.0
2.4157700000000002e-9,140393.0
2.49362e-9,138295.0
2.5739800000000002e-9,136230.0
2.65692e-9,134198.0
2.7425500000000002e-9,132198.0
2.8309300000000003e-9,130231.00000000001
2.92217e-9,128294.0
3.01633e-9,126387.99999999999
3.11354e-9,124513.0
3.21387e-9,122668.0
3.3174500000000004e-9,120851.0
3.42435e-9,119063.99999999999
3.53471e-9,117304.99999999999
3.6486100000000003e-9,115574.0
3.7662000000000005e-9,113871.00000000001
3.88757e-9,112194.0
4.01286e-9,110545.0
4.14217e-9,108921.0
4.2756600000000005e-9,107322.99999999999
4.41344e-9,105751.0
4.55568e-9,104204.00000000001
4.71245e-9,102580.0
4.8746099999999996e-9,100984.0
5.0423500000000005e-9,99415.0
5.21586e-9,97872.5
5.3953499999999996e-9,96356.2
5.5810000000000005e-9,94865.4
5.77305e-9,93399.90000000001
5.97171e-9,91959.09999999999
6.1772100000000004e-9,90542.8
6.389770000000001e-9,89150.3
6.609650000000001e-9,87781.40000000001
6.837100000000001e-9,86435.6
7.072370000000001e-9,85112.6
7.315740000000001e-9,83811.9
7.56748e-9,82533.2
7.82789e-9,81276.1
8.097250000000002e-9,80040.20000000001
8.375890000000001e-9,78825.2
8.664110000000001e-9,77630.7
8.96225e-9,76456.40000000001
9.27066e-9,75301.90000000001
9.589670000000001e-9,74166.9
9.919660000000001e-9,73051.0
1.0261e-8,71954.0
1.06141e-8,70875.5
1.0979300000000002e-8,69815.2
1.1357200000000001e-8,68772.8
1.1748e-8,67748.0
1.21522e-8,66740.4
1.25704e-8,65749.9
1.3003e-8,64776.0
1.34504e-8,63818.6
1.39133e-8,62877.299999999996
1.4392e-8,61951.9
1.4887300000000001e-8,61041.99999999999
1.53996e-8,60147.5
1.59295e-8,59268.1
1.64776e-8,58403.5
1.70447e-8,57553.5
1.7631200000000002e-8,56717.8
1.8237900000000002e-8,55896.100000000006
1.88655e-8,55088.4
1.95147e-8,54294.200000000004
2.01862e-8,53513.4
2.0880800000000003e-8,52745.8
2.1599300000000003e-8,51991.1
2.23426e-8,51249.1
2.31114e-8,50519.600000000006
2.39067e-8,49802.4
2.47294e-8,49097.299999999996
2.52522e-8,48667.2
2.5299999999999998e-8,48628.600000000006
2.61706e-8,47943.3
2.7071200000000002e-8,47269.50000000001
2.80027e-8,46607.1
2.8966300000000002e-8,45955.8
2.99631e-8,45315.5
3.09942e-8,44685.9
3.21286e-8,44028.600000000006
3.33045e-8,43383.200000000004
3.45235e-8,42749.2
3.5787e-8,42126.6
3.7097000000000005e-8,41515.00000000001
3.84547e-8,40914.5
3.98622e-8,40324.600000000006
4.13211e-8,39745.2
4.28336e-8,39176.2
4.4401200000000006e-8,38617.3
4.60265e-8,38068.399999999994
4.7710999999999996e-8,37529.3
4.94573e-8,36999.8
5.12674e-8,36479.8
5.3143900000000004e-8,35969.0
5.50889e-8,35467.399999999994
5.7105300000000004e-8,34974.7
5.91953e-8,34490.9
6.136210000000001e-8,34015.7
6.36078e-8,33549.1
6.5936e-8,33090.700000000004
6.834920000000001e-8,32640.600000000002
7.0851e-8,32198.5
7.3444e-8,31764.399999999998
7.61323e-8,31337.899999999998
7.89186e-8,30919.1
8.18073e-8,30507.7
8.480130000000001e-8,30103.6
8.790530000000001e-8,29706.7
9.13156e-8,29294.2
9.48582e-8,28889.399999999998
9.85382e-8,28492.3
1.0236099999999999e-7,28102.7
1.06332e-7,27720.5
1.10457e-7,27345.4
1.1474200000000001e-7,26977.5
1.1919399999999999e-7,26616.5
1.23818e-7,26262.3
1.28622e-7,25914.899999999998
1.33611e-7,25574.1
1.38795e-7,25239.699999999997
1.4417899999999998e-7,24911.6
1.49773e-7,24589.699999999997
1.55583e-7,24273.899999999998
1.6161899999999999e-7,23964.0
1.67889e-7,23659.9
1.7440199999999998e-7,23361.5
1.81168e-7,23068.7
1.88595e-7,22765.7
1.9632599999999998e-7,22468.6
2.04374e-7,22177.600000000002
2.12753e-7,21892.2
2.21474e-7,21612.6
2.3055299999999999e-7,21338.6
2.40004e-7,21070.000000000004
2.49843e-7,20806.7
2.6008499999999996e-7,20548.7
2.70747e-7,20295.800000000003
2.81846e-7,20048.1
2.934e-7,19805.3
3.0542699999999997e-7,19567.3
3.18621e-7,19321.8
3.32385e-7,19081.399999999998
3.4674299999999997e-7,18846.0
3.61721e-7,18615.5
3.77347e-7,18389.8
3.9364699999999995e-7,18168.8
4.1065199999999994e-7,17952.5
4.2839099999999996e-7,17740.7
4.46896e-7,17533.3
4.66201e-7,17330.2
4.863389999999999e-7,17131.4
5.08423e-7,16927.1
5.31507e-7,16727.3
5.55642e-7,16531.899999999998
5.808699999999999e-7,16340.9
6.07246e-7,16153.900000000001
6.34817e-7,15971.0
6.636429999999999e-7,15792.1
6.93774e-7,15617.0
7.25277e-7,15445.800000000001
7.59814e-7,15270.4
7.95995e-7,15099.0
8.33899e-7,14931.6
8.736079999999999e-7,14767.9
9.152079999999999e-7,14608.000000000002
9.58789e-7,14451.7
1.00444e-6,14299.0
1.0571799999999999e-6,14135.2
1.12595e-6,13939.0
1.2161599999999998e-6,13706.9
1.32281e-6,13464.3
1.4797e-6,13155.6
1.67854e-6,12827.2
1.9581999999999997e-6,12453.7
2.3166999999999998e-6,12074.9
2.76002e-6,11711.800000000001
3.2883399999999998e-6,11377.1
3.97287e-6,11046.800000000001
4.80013e-6,10740.7
5.84027e-6,10449.900000000001
7.155579999999999e-6,10173.300000000001
8.82895e-6,9909.28
1.0970500000000001e-5,9655.97
1.3727000000000001e-5,9412.76
1.7418400000000003e-5,9171.54
2.22573e-5,8937.76
2.82427e-5,8724.19
3.60904e-5,8518.81
4.5158600000000005e-5,8356.74
5.4179600000000006e-5,8260.160000000002
6.284340000000001e-5,8227.320000000002
7.088190000000001e-5,8258.94
7.763770000000001e-5,8342.93
8.38585e-5,8478.68
8.93132e-5,8657.310000000001
9.380400000000001e-5,8857.02
9.78305e-5,9091.1
0.000101315,9343.439999999999
0.00010419400000000001,9589.25
0.000107155,9894.93
0.00011020000000000001,10271.9
0.000112543,10614.6
0.00011493,11019.699999999999
0.000117374,11504.099999999999
0.00011986300000000001,12088.099999999999
0.00012155400000000001,12545.3
0.00012326900000000002,13069.800000000001
0.00012500800000000002,13675.1
0.000126772,14376.800000000001
0.000128113,14979.3
0.000129467,15657.9
0.000130834,16418.9
0.00013221400000000002,17291.399999999998
0.000133613,18294.8
0.000135025,19450.0
0.00013597,20317.1
0.00013693,21284.5
0.000137889,22352.5
0.000138861,23552.9
0.000139834,24888.8
0.000140821,26403.2
0.000141807,28104.300000000003
0.000142557,29542.199999999997
0.00014330700000000002,31122.6
0.000144061,32873.2
0.00014482200000000002,34829.0
0.000145583,37002.100000000006
0.00014635100000000002,39445.4
0.000147122,42192.600000000006
0.000147894,45293.9
0.000148416,47624.700000000004
0.00014893700000000003,50161.7
0.000149459,52930.700000000004
0.00014998,55963.3
0.000150509,59343.2
0.000151038,63069.3
0.00015156700000000002,67180.40000000001
0.00015209600000000003,71743.2
0.000152633,76917.09999999999
0.00015303500000000001,81204.5
0.00015343800000000002,85885.9
0.00015384,91010.8
0.000154242,96636.5
0.00015465000000000002,102922.0
0.00015505800000000002,109873.0
0.000155466,117587.0
0.00015587400000000002,126177.99999999999
0.00015628200000000002,135784.0
0.00015668800000000001,146491.0
0.000156957,154342.0
0.000157226,162859.0
0.000157495,172119.0
0.000157764,182210.0
0.000158034,193233.0
0.000158303,205304.00000000003
0.000158572,218554.0
0.000158866,234547.99999999997
0.00015916,252369.00000000003
0.000159454,272319.0
0.00015965,286979.0
0.000159846,302865.0
0.000160042,320114.0
0.000160248,339973.0
0.000160466,362937.0
0.00016068400000000002,388297.0
0.00016090199999999999,416390.99999999994
0.00016108300000000002,442178.0
0.000161301,476376.00000000006
0.000161518,514644.0
0.000161664,542732.0
0.000161809,573139.0
0.00016195400000000002,606116.0
0.000162099,641952.0
0.00016224400000000003,680972.0
0.000162389,723548.0
0.000162534,770105.0
0.00016268,821128.0
0.00016282500000000001,877173.0
0.00016297,938880.0
0.00016311500000000003,1.00698e6
0.00016326,1.08231e6
0.000163405,1.16585e6
0.00016351400000000002,1.23455e6
0.000163623,1.309e6
0.000163732,1.3898e6
0.000163841,1.47758e6
0.00016395,1.57304e6
0.000164058,1.67694e6
0.000164167,1.7901e6
0.000164276,1.91339e6
0.00016438500000000002,2.04774e6
0.00016449400000000003,2.19409e6
0.000164603,2.35338e6
0.000164712,2.5265e6
0.00016482,2.71427e6
0.000164929,2.9173e6
0.000165038,3.13594e6
0.000165147,3.37017e6
0.00016529200000000002,3.70568e6
0.000165437,4.06463e6
0.000165709,4.77776e6
0.000165927,5.34528e6
0.00016609,5.73538e6
0.000166199,5.96431e6
0.000166308,6.15939e6
0.000166417,6.31358e6
0.000166526,6.42102e6
0.00016663500000000002,6.47748e6
0.00016669700000000002,6.48588e6
0.00016680200000000002,6.46049e6
0.00016691,6.38263e6
0.00016701900000000002,6.25549e6
0.00016712800000000003,6.08408e6
0.000167237,5.87485e6
0.00016735100000000002,5.62247e6
0.00016747700000000002,5.31805e6
0.000167936,4.12155e6
0.000168108,3.69643e6
0.000168239,3.39582e6
0.000168369,3.11651e6
0.0001685,2.85944e6
0.00016863,2.6245e6
0.00016876100000000002,2.41089e6
0.000168892,2.21737e6
0.000169022,2.04243e6
0.000169153,1.88448e6
0.000169284,1.74192e6
0.000169371,1.65466e6
0.00016947200000000002,1.56006e6
0.000169574,1.4726e6
0.00016967500000000002,1.39168e6
0.000169777,1.31675e6
0.000169879,1.24729e6
0.000170031,1.15236e6
0.000170183,1.0673e6
0.00017030000000000002,1.0083500000000001e6
0.000170416,953938.0
0.000170532,903642.9999999999
0.000170648,857082.0
0.00017082200000000003,793499.0
0.000170996,736549.0
0.00017117800000000002,683357.0
0.000171308,648475.0
0.000171504,600869.0
0.00017170000000000003,558248.0
0.00017189600000000002,519956.99999999994
0.00017209200000000002,485447.0
0.000172243,461197.00000000006
0.000172413,435860.99999999994
0.000172584,412552.0
0.000172754,391060.0
0.00017292500000000002,371198.0
0.000173181,344118.0
0.000173436,319903.0
0.00017364,302463.0
0.00017387600000000003,283978.0
0.00017411100000000001,267163.0
0.00017434700000000002,251818.0
0.00017458300000000002,237771.0
0.000174819,224880.0
0.00017505500000000002,213022.0
0.000175291,202093.0
0.00017555400000000002,190886.0
0.000175844,179592.0
0.000176134,169296.0
0.00017642500000000002,159884.0
0.000176715,151259.0
0.000177005,143335.0
0.000177295,136039.0
0.000177731,126132.0
0.000178044,119682.0
0.00017835800000000002,113734.0
0.00017882800000000002,105646.0
0.00017929800000000002,98430.70000000001
0.000179768,91966.40000000001
0.00018023800000000002,86152.70000000001
0.00018071500000000002,80834.8
0.000181192,76024.90000000001
0.000181669,71661.5
0.000182145,67695.5
0.00018262200000000001,64080.5
0.00018310400000000001,60735.799999999996
0.00018374800000000002,56677.4
0.000184393,53045.5
0.000185038,49781.1
0.000185687,46823.2
0.000186341,44141.6
0.000186994,41711.1
0.000187648,39494.6
0.000188306,37459.0
0.000188969,35586.2
0.00018963200000000002,33871.1
0.000190627,31556.8
0.000191635,29482.6
0.000192644,27641.6
0.000193657,25992.600000000002
0.00019468000000000003,24503.2
0.000195703,23165.6
0.000196735,21948.8
0.000197772,20843.8
0.00019881,19841.7
0.00020021200000000001,18628.4
0.00020161400000000002,17554.6
0.00020303700000000001,16586.6
0.000204459,15724.3
0.00020590099999999998,14940.4
0.00020734300000000002,14234.4
0.00020880600000000002,13588.3
0.00021026900000000002,13003.499999999998
0.000212493,12214.6
0.00021473900000000003,11521.699999999999
0.000217006,10909.4
0.00021929400000000003,10365.2
0.00022161499999999998,9876.849999999999
0.00022395700000000002,9438.67
0.00022552599999999998,9171.68
0.000228707,8687.93
0.00023193400000000002,8259.02
0.00023520599999999998,7879.120000000001
0.000238525,7538.12
0.00024189,7233.05
0.00024530200000000003,6957.07
0.000248763,6705.21
0.000254052,6368.11
0.000259441,6071.25
0.000264957,5805.92
0.000270577,5567.74
0.00027633000000000003,5351.07
0.00028418299999999997,5091.64
0.000292205,4858.95
0.000302559,4596.02
0.000313351,4356.42
0.000324513,4136.77
0.000338202,3896.81
0.00035271900000000004,3669.48
0.000370338,3421.92
0.00038894000000000005,3184.71
0.000411358,2925.0099999999998
0.000435068,2673.63
0.000458261,2446.17
0.00048291800000000004,2220.58
0.000510623,1983.49
0.000541254,1738.85
0.0005640430000000001,1567.06
0.000586832,1403.54
0.00060962,1247.93
0.000631335,1106.8
0.000653854,967.769
0.000672434,859.1049999999999
0.0006893810000000001,765.174
0.000704004,687.8739999999999
0.000718972,612.652
0.000729116,564.235
0.000741125,509.595
0.0007548390000000001,451.04699999999997
0.0007661190000000001,406.171
0.000775069,372.767
0.0007832700000000001,344.118
0.000791548,317.001
0.000799904,291.786
0.000805527,276.01
0.0008111890000000001,261.16700000000003
0.000816891,247.324
0.0008220100000000001,235.779
0.0008288130000000001,222.061
0.0008336220000000001,213.46599999999998
0.000840128,203.308
0.000845219,196.597
0.000850311,191.058
0.000855402,186.69299999999998
0.000860494,183.56900000000002
0.0008655860000000001,181.768
0.000870111,181.299
0.000875203,182.12900000000002
0.000880294,184.429
0.0008853859999999999,188.274
0.0008904780000000001,193.736
0.0008955690000000001,200.89100000000002
0.0009006610000000001,209.818
0.000904055,216.794
0.0009085810000000001,227.42399999999998
0.000913107,239.63299999999998
0.0009176330000000001,253.48700000000002
0.000922158,269.058
0.0009266840000000001,286.422
0.0009312099999999999,305.65799999999996
0.0009357360000000001,326.851
0.0009402620000000001,350.087
0.000944788,375.509
0.0009493130000000001,403.16799999999995
0.000953839,433.119
0.0009583650000000001,465.518
0.000962891,500.479
0.000967417,538.125
0.000971943,578.583
0.0009764680000000001,621.989
0.000980994,668.486
0.0009855200000000001,718.227
0.000990046,771.3720000000001
0.000994572,828.09
0.0009990980000000001,888.5619999999999
0.00100362,952.979
0.0010081500000000002,1021.5399999999998
0.00101268,1094.47
0.0010172000000000002,1171.98
0.00102173,1254.3200000000002
0.00102625,1341.75
0.00103078,1434.54
0.0010353,1532.98
0.00103983,1637.38
0.00104436,1748.07
0.00104888,1865.3999999999999
0.00105341,1989.74
0.0010579300000000001,2121.4900000000002
0.0010647200000000001,2334.25
0.00106925,2486.4700000000003
0.0010760400000000001,2731.56
0.00108283,2999.53
0.00108961,3290.98
0.0010964,3609.76
0.00110319,3956.7000000000003
0.00110998,4336.48
0.00111677,4750.2300000000005
0.00112356,5203.719999999999
0.00113035,5698.47
0.00113714,6241.61
0.0011416599999999999,6631.8099999999995
0.00114619,7046.77
0.0011507099999999999,7488.28
0.00115524,7958.280000000001
0.00115976,8458.880000000001
0.0011642900000000001,8992.39
0.00116882,9561.34
0.0011733400000000001,10168.5
0.00117787,10816.8
0.0011823900000000002,11509.5
0.0011872,12295.7
0.0011922900000000001,13195.2
0.00119682,14055.599999999999
0.00120276,15280.9
0.00120706,16240.6
0.00121136,17267.9
0.00121702,18733.5
0.00122267,20340.600000000002
0.0012281,22035.100000000002
0.0012335400000000002,23894.1
0.00123806,25585.300000000003
0.00124259,27406.199999999997
0.0012466600000000001,29183.1
0.00125073,31097.3
0.00125481,33161.8
0.00125888,35390.5
0.00126295,37799.5
0.0012670300000000002,40407.1
0.0012710999999999998,43234.2
0.00127517,46304.299999999996
0.00127925,49643.7
0.0012833200000000001,53281.4
0.00128739,57249.9
0.0012914699999999999,61585.4
0.00129554,66329.90000000001
0.00129911,70871.0
0.00130244,75445.59999999999
0.0013057700000000002,80389.9
0.00130923,85970.09999999999
0.00131269,92037.8
0.00131636,99052.79999999999
0.00131907,104673.0
0.00132179,110700.0
0.00132586,120570.0
0.0013285800000000002,127765.0
0.0013312900000000002,135499.0
0.0013340099999999998,143804.0
0.0013378600000000002,156608.0
0.00134125,169141.0
0.00134464,182927.0
0.00134804,198094.0
0.00135143,214793.0
0.00135483,233187.0
0.00135822,253453.00000000003
0.00136162,275773.0
0.00136501,300336.0
0.00136841,327325.0
0.0013717999999999998,356910.0
0.00137429,380341.0
0.001377,407747.0
0.00137972,436893.0
0.0013837900000000002,483843.0
0.00138787,534466.0
0.0013933,606336.0
0.00140212,725260.0
0.00140574,770250.0
0.0014091400000000001,807704.0
0.0014125300000000002,838790.0
