E(MeV),xs(mb)
1.0e-11,550748.0
1.03223e-11,542102.0
1.06549e-11,533595.0
1.0998399999999998e-11,525219.0
1.13527e-11,516979.0
1.1718599999999999e-11,508865.00000000006
1.2096199999999998e-11,500882.0
1.24861e-11,493023.0
1.2888399999999999e-11,485290.0
1.3303799999999998e-11,477676.00000000006
1.37325e-11,470186.0
1.41751e-11,462811.00000000006
1.4631799999999997e-11,455553.99999999994
1.51034e-11,448410.0
1.5590099999999998e-11,441382.00000000006
1.6092599999999998e-11,434461.00000000006
1.66111e-11,427653.0
1.71465e-11,420949.0
1.7699e-11,414354.0
1.8269399999999998e-11,407861.0
1.88581e-11,401471.99999999994
1.94659e-11,395182.0
2.00931e-11,388994.0
2.0740699999999998e-11,382901.0
2.1408999999999998e-11,376907.0
2.2099099999999997e-11,371006.0
2.28111e-11,365199.0
2.3546399999999998e-11,359483.0
2.4305099999999997e-11,353859.0
2.50884e-11,348322.0
2.5896799999999997e-11,342874.0
2.67315e-11,337511.0
2.75928e-11,332235.0
2.8482199999999998e-11,327040.0
2.93999e-11,321929.0
3.0347499999999995e-11,316898.0
3.13253e-11,311947.0
3.2335e-11,307074.0
3.33769e-11,302279.0
3.44526e-11,297559.0
3.55627e-11,292914.0
3.67089e-11,288343.0
3.7891799999999997e-11,283845.0
3.9113e-11,279417.0
4.0373400000000003e-11,275060.0
4.1674599999999996e-11,270772.0
4.3017399999999996e-11,266552.0
4.440389999999999e-11,262399.0
4.58347e-11,258312.0
4.7311899999999994e-11,254289.0
4.883639999999999e-11,250331.0
5.0410399999999995e-11,246435.0
5.20348e-11,242601.99999999997
5.37119e-11,238829.0
5.54426e-11,235117.00000000003
5.7229499999999995e-11,231463.00000000003
5.907359999999999e-11,227868.0
6.09775e-11,224329.0
6.29424e-11,220847.00000000003
6.497099999999999e-11,217420.0
6.70645e-11,214048.00000000003
6.9226e-11,210730.0
7.145659999999999e-11,207464.0
7.37596e-11,204251.0
7.61364e-11,201088.99999999997
7.85902e-11,197976.0
8.11227e-11,194914.0
8.37372e-11,191901.0
8.643549999999999e-11,188936.0
8.922119999999998e-11,186017.0
9.209619999999999e-11,183146.0
9.506439999999999e-11,180321.0
9.81277e-11,177540.0
1.01291e-10,174804.0
1.04554e-10,172112.0
1.07924e-10,169463.0
1.11402e-10,166856.0
1.1499200000000001e-10,164291.0
1.1869700000000001e-10,161767.0
1.22523e-10,159283.0
1.26471e-10,156840.0
1.30547e-10,154435.0
1.34754e-10,152069.0
1.3909700000000002e-10,149741.0
1.43579e-10,147450.0
1.48207e-10,145196.0
1.52982e-10,142978.0
1.57913e-10,140795.0
1.6300100000000001e-10,138648.0
1.68254e-10,136535.0
1.73676e-10,134457.0
1.79274e-10,132411.0
1.8505000000000002e-10,130397.99999999999
1.91014e-10,128418.00000000001
1.97169e-10,126470.0
2.03524e-10,124552.0
2.1008200000000003e-10,122666.00000000001
2.16853e-10,120810.0
2.2384e-10,118984.0
2.31055e-10,117187.0
2.385e-10,115419.99999999999
2.46187e-10,113680.0
2.5412e-10,111969.00000000001
2.6231e-10,110285.00000000001
2.70762e-10,108629.0
2.7948900000000003e-10,106998.0
2.88494e-10,105395.0
2.9779300000000004e-10,103817.0
3.07388e-10,102264.0
3.1729500000000004e-10,100737.00000000001
3.27519e-10,99234.1
3.38075e-10,97755.3
3.4896900000000003e-10,96300.6
3.6021600000000004e-10,94869.0
3.7182300000000004e-10,93460.90000000001
3.83807e-10,92075.0
3.96174e-10,90711.8
4.08943e-10,89370.3
4.2212e-10,88050.59999999999
4.3572499999999996e-10,86751.90000000001
4.4976500000000005e-10,85474.4
4.6426100000000007e-10,84217.20000000001
4.79221e-10,82980.5
4.94666e-10,81763.4
5.10605e-10,80566.09999999999
5.270620000000001e-10,79387.9
5.440450000000001e-10,78228.9
5.6158e-10,77088.2
5.809040000000001e-10,75891.90000000001
6.00894e-10,74716.0
6.21571e-10,73560.3
6.4296e-10,72424.40000000001
6.650850000000001e-10,71307.90000000001
6.87972e-10,70210.5
7.11646e-10,69131.90000000001
7.361340000000001e-10,68071.8
7.61465e-10,67029.8
7.87668e-10,66005.59999999999
8.14773e-10,64998.899999999994
8.428100000000001e-10,64009.5
8.718120000000001e-10,63036.899999999994
9.01812e-10,62080.9
9.32845e-10,61141.3
9.64945e-10,60217.7
9.981500000000001e-10,59309.9
1.0325000000000001e-9,58417.5
1.06803e-9,57540.4
1.1047800000000002e-9,56678.2
1.1428e-9,55830.799999999996
1.18212e-9,54997.7
1.2228000000000002e-9,54178.9
1.26488e-9,53374.0
1.3084000000000002e-9,52582.899999999994
1.35343e-9,51805.2
1.4e-9,51040.700000000004
1.44817e-9,50289.200000000004
1.49801e-9,49550.6
1.5495600000000002e-9,48824.50000000001
1.6028800000000002e-9,48110.7
1.65804e-9,47409.100000000006
1.7150900000000001e-9,46719.4
1.7741100000000002e-9,46041.5
1.83516e-9,45375.0
1.8983100000000002e-9,44719.9
1.96363e-9,44075.9
2.0312e-9,43442.9
2.1011e-9,42820.600000000006
2.1734e-9,42208.8
2.2481900000000003e-9,41607.5
2.32555e-9,41016.3
2.4055800000000003e-9,40435.2
2.4883500000000004e-9,39864.0
2.5739800000000002e-9,39302.4
2.66255e-9,38750.4
2.75418e-9,38207.7
2.84895e-9,37674.2
2.9469900000000004e-9,37149.8
3.0484000000000004e-9,36634.2
3.15996e-9,36096.1
3.27563e-9,35567.5
3.39551e-9,35048.6
3.5198e-9,34538.9
3.6486100000000003e-9,34038.4
3.78217e-9,33546.8
3.92059e-9,33064.200000000004
4.064090000000001e-9,32590.2
4.212830000000001e-9,32124.7
4.36703e-9,31667.6
4.526860000000001e-9,31218.7
4.692560000000001e-9,30777.899999999998
4.8643e-9,30345.0
5.0423500000000005e-9,29919.8
5.226890000000001e-9,29502.4
5.418210000000001e-9,29092.4
5.61651e-9,28689.8
5.8220900000000005e-9,28294.399999999998
6.03517e-9,27906.1
6.256080000000001e-9,27524.8
6.48504e-9,27150.3
6.7224100000000006e-9,26782.6
6.96844e-9,26421.399999999998
7.223510000000001e-9,26066.699999999997
7.48788e-9,25718.399999999998
7.76196e-9,25376.3
8.046030000000001e-9,25040.399999999998
8.34054e-9,24710.5
8.664110000000001e-9,24367.600000000002
9.00024e-9,24031.2
9.3494e-9,23701.3
9.71211e-9,23377.6
1.0088900000000001e-8,23060.0
1.04803e-8,22748.499999999996
1.08869e-8,22442.899999999998
1.13092e-8,22143.1
1.1748e-8,21849.0
1.22037e-8,21560.5
1.26772e-8,21277.4
1.3169e-8,20999.8
1.36799e-8,20727.3
1.42106e-8,20460.1
1.47619e-8,20197.9
1.53346e-8,19940.7
1.59295e-8,19688.3
1.65475e-8,19440.7
1.72258e-8,19184.5
1.7931999999999998e-8,18933.4
1.8667e-8,18687.3
1.94323e-8,18446.100000000002
2.02289e-8,18209.8
2.10582e-8,17978.2
2.1921400000000003e-8,17751.3
2.28201e-8,17528.9
2.37555e-8,17311.0
2.47294e-8,17097.4
2.52522e-8,16987.8
2.5299999999999998e-8,16978.0
2.63372e-8,16771.100000000002
2.7416800000000002e-8,16568.3
2.8540800000000003e-8,16369.499999999998
2.97107e-8,16174.800000000001
3.09942e-8,15974.1
3.2332999999999996e-8,15777.6
3.37297e-8,15585.199999999999
3.51868e-8,15396.9
3.67067e-8,15212.5
3.82924e-8,15031.9
3.99465e-8,14855.199999999999
4.1672099999999996e-8,14682.2
4.3472200000000005e-8,14512.8
4.53501e-8,14347.0
4.74094e-8,14176.599999999999
4.9561900000000005e-8,14010.1
5.18124e-8,13847.199999999999
5.41649e-8,13687.9
5.66244e-8,13532.2
5.91953e-8,13379.9
6.18833e-8,13231.0
6.4693e-8,13085.500000000002
6.777350000000001e-8,12936.4
7.10008e-8,12790.699999999999
7.43818e-8,12648.4
7.79237e-8,12509.4
8.16343e-8,12373.6
8.552160000000001e-8,12240.9
8.9594e-8,12111.400000000001
9.38604e-8,11984.8
9.85382e-8,11855.6
1.0344899999999999e-7,11729.5
1.0860399999999998e-7,11606.5
1.1401699999999998e-7,11486.5
1.19699e-7,11369.400000000001
1.2566399999999998e-7,11255.2
1.3220599999999999e-7,11138.9
1.3908799999999998e-7,11025.6
1.4632899999999999e-7,10915.1
1.53947e-7,10807.3
1.61961e-7,10702.3
1.70753e-7,10595.699999999999
1.80022e-7,10491.900000000001
1.8979499999999999e-7,10390.900000000001
2.0009800000000002e-7,10292.4
2.1096099999999998e-7,10196.6
2.2288399999999997e-7,10099.6
2.3548e-7,10005.2
2.48789e-7,9913.43
2.6284999999999995e-7,9824.12
2.7829299999999996e-7,9734.0
2.94644e-7,9646.42
3.11954e-7,9561.24
3.30982e-7,9475.41
3.5117e-7,9392.07
3.72589e-7,9311.14
3.95315e-7,9232.56
4.2031599999999994e-7,9153.55
4.46896e-7,9076.91
4.75159e-7,9002.53
5.06278e-7,8927.91
5.39434e-7,8855.58
5.75977e-7,8783.22
6.149989999999999e-7,8713.03
6.56662e-7,8645.02
7.02632e-7,8577.019999999999
7.51821e-7,8511.189999999999
8.061579999999999e-7,8445.49
8.64418e-7,8381.919999999998
9.268929999999999e-7,8320.41
9.959849999999999e-7,8259.119999999999
1.0796099999999999e-6,8192.89
1.19924e-6,8110.179999999999
1.38926e-6,8001.13
1.67854e-6,7872.28
2.12992e-6,7728.889999999999
2.6837599999999998e-6,7615.65
3.2653099999999997e-6,7554.75
3.5463399999999997e-6,7546.57
4.0229e-6,7572.6
4.40632e-6,7642.67
4.72604e-6,7751.21
4.9984499999999996e-6,7897.33
5.213e-6,8063.079999999999
5.39895e-6,8257.949999999999
5.55236e-6,8467.85
5.6701399999999996e-6,8668.92
5.7907e-6,8921.13
5.91353e-6,9239.3
5.996959999999999e-6,9502.26
6.081559999999999e-6,9816.94
6.16736e-6,10197.300000000001
6.23262e-6,10537.6
6.29849e-6,10935.699999999999
6.3649799999999995e-6,11405.5
6.432089999999999e-6,11964.8
6.477459999999999e-6,12401.800000000001
6.52284e-6,12895.6
6.56885e-6,13464.8
6.61486e-6,14115.2
6.66153e-6,14873.5
6.696519999999999e-6,15520.6
6.73185e-6,16255.0
6.76734e-6,17088.600000000002
6.80283e-6,18035.1
6.83882e-6,19131.6
6.86281e-6,19952.3
6.88681e-6,20855.899999999998
6.910969999999999e-6,21861.4
6.9352999999999995e-6,22984.7
6.95963e-6,24236.0
6.98397e-6,25635.500000000004
7.0084699999999995e-6,27219.000000000004
7.02698e-6,28548.8
7.04548e-6,30010.6
7.06399e-6,31622.3
7.0824999999999995e-6,33405.200000000004
7.10109e-6,35394.5
7.11986e-6,37634.8
7.13863e-6,40146.7
7.1573999999999994e-6,42975.700000000004
7.16991e-6,45064.9
7.182419999999999e-6,47339.0
7.19493e-6,49820.399999999994
7.20636e-6,52291.0
7.21779e-6,54979.7
7.229219999999999e-6,57913.50000000001
7.24066e-6,61123.5
7.25209e-6,64646.0
7.26352e-6,68523.7
7.274949999999999e-6,72806.6
7.28638e-6,77554.1
7.29572e-6,81825.50000000001
7.3050599999999995e-6,86499.29999999999
7.31439e-6,91628.4
7.32373e-6,97275.1
7.33307e-6,103513.00000000001
7.342399999999999e-6,110430.0
7.35174e-6,118130.0
7.35875e-6,124495.0
7.367619999999999e-6,133391.0
7.3741499999999995e-6,140624.0
7.3806900000000005e-6,148515.0
7.38723e-6,157146.0
7.39376e-6,166618.0
7.400299999999999e-6,177049.0
7.4068299999999995e-6,188576.0
7.41337e-6,201365.00000000003
7.418969999999999e-6,213479.00000000003
7.42457e-6,226810.0
7.43018e-6,241528.0
7.43578e-6,257832.00000000003
7.441379999999999e-6,275954.0
7.4469799999999995e-6,296164.0
7.45119e-6,312878.0
7.45539e-6,331093.0
7.459679999999999e-6,351438.0
7.46417e-6,374737.0
7.46865e-6,400398.00000000006
7.47313e-6,428691.0
7.47761e-6,459917.0
7.48209e-6,494398.0
7.48583e-6,525869.0
7.48956e-6,560052.0
7.493299999999999e-6,597169.0
7.497029999999999e-6,637444.0
7.50077e-6,681107.0
7.5045e-6,728387.0
7.50824e-6,779510.0
7.51197e-6,834689.0
7.51571e-6,894126.9999999999
7.51944e-6,958001.0
7.52318e-6,1.0264599999999999e6
7.52691e-6,1.09963e6
7.53065e-6,1.17758e6
7.536249999999999e-6,1.30349e6
7.54185e-6,1.44e6
7.54746e-6,1.58657e6
7.55306e-6,1.74226e6
7.560529999999999e-6,1.96156e6
7.582939999999999e-6,2.64886e6
7.59041e-6,2.86395e6
7.59601e-6,3.01204e6
7.60161e-6,3.14481e6
7.60759e-6,3.26573e6
7.61207e-6,3.34023e6
7.6173e-6,3.40769e6
7.6228999999999995e-6,3.45497e6
7.62851e-6,3.4751e6
7.62993e-6,3.47581e6
7.63486e-6,3.46445e6
7.64008e-6,3.42925e6
7.64569e-6,3.36613e6
7.65129e-6,3.2785e6
7.656889999999999e-6,3.16882e6
7.66249e-6,3.04003e6
7.6681e-6,2.89545e6
7.67557e-6,2.68426e6
7.68864e-6,2.28769e6
7.69984e-6,1.94699e6
7.707309999999999e-6,1.73057e6
7.71292e-6,1.57714e6
7.718519999999999e-6,1.43282e6
7.72412e-6,1.29846e6
7.72972e-6,1.17455e6
7.73346e-6,1.09783e6
7.73719e-6,1.0258e6
7.74093e-6,958367.0
7.74466e-6,895424.0
7.7484e-6,836816.0
7.75213e-6,782366.0
7.75587e-6,731878.0
7.7596e-6,685142.0
7.76334e-6,641940.0
7.76707e-6,602048.0
7.77081e-6,565246.0
7.77454e-6,531313.0
7.779209999999999e-6,492610.0
7.783419999999999e-6,460999.0
7.78762e-6,432156.0
7.79182e-6,405825.0
7.79602e-6,381768.0
7.80032e-6,359299.0
7.8048e-6,337913.0
7.80928e-6,318413.0
7.81376e-6,300602.0
7.81824e-6,284302.0
7.82273e-6,269355.0
7.8287e-6,251289.0
7.83468e-6,235090.99999999997
7.84065e-6,220512.0
7.846629999999999e-6,207343.0
7.85223e-6,196118.0
7.85784e-6,185849.0
7.8653e-6,173459.0
7.872779999999999e-6,162362.0
7.880239999999999e-6,152378.0
7.88771e-6,143358.0
7.89519e-6,135180.0
7.90265e-6,127736.99999999999
7.91106e-6,120134.99999999999
7.9204e-6,112522.00000000001
7.92973e-6,105670.0
7.93907e-6,99479.4
7.948409999999999e-6,93865.59999999999
7.95775e-6,88757.7
7.96708e-6,84095.8
7.97642e-6,79828.3
7.98716e-6,75351.7
7.9993e-6,70778.2
8.01144e-6,66655.1
8.023580000000001e-6,62924.3
8.035709999999999e-6,59536.7
8.04785e-6,56450.899999999994
8.05999e-6,53631.3
8.072129999999999e-6,51047.799999999996
8.085319999999998e-6,48477.49999999999
8.099569999999999e-6,45947.7
8.11382e-6,43643.299999999996
8.12806e-6,41538.3
8.142309999999999e-6,39610.1
8.16368e-6,37007.5
8.18505e-6,34704.4
8.206619999999998e-6,32637.800000000003
8.22829e-6,30784.699999999997
8.24996e-6,29124.3
8.27163e-6,27630.4
8.2933e-6,26281.6
8.30775e-6,25453.7
8.33705e-6,23928.4
8.36635e-6,22582.100000000002
8.39565e-6,21387.6
8.42495e-6,20322.6
8.45467e-6,19356.2
8.48438e-6,18488.6
8.514099999999999e-6,17706.5
8.55888e-6,16665.9
8.60408e-6,15757.099999999999
8.649279999999999e-6,14965.900000000001
8.69491e-6,14265.699999999999
8.74075e-6,13645.400000000001
8.78659e-6,13095.8
8.84857e-6,12447.2
8.91055e-6,11888.6
8.973409999999999e-6,11397.4
9.03627e-6,10968.9
9.100009999999998e-6,10587.599999999999
9.19607e-6,10095.6
9.29303e-6,9679.73
9.39136e-6,9323.19
9.49062e-6,9016.84
9.62452e-6,8669.66
9.7603e-6,8377.31
9.897999999999999e-6,8128.84
1.00376e-5,7915.38
1.0250600000000001e-5,7646.79
1.0468500000000001e-5,7424.839999999999
1.06906e-5,7238.96
1.09943e-5,7032.13
1.13865e-5,6821.469999999999
1.1875300000000001e-5,6617.13
1.24718e-5,6422.7699999999995
1.31906e-5,6237.7
1.4147700000000002e-5,6040.650000000001
1.5281300000000002e-5,5853.3
1.6504900000000002e-5,5694.08
1.7579400000000003e-5,5593.3099999999995
1.84624e-5,5548.219999999999
1.88131e-5,5543.13
1.9484200000000002e-5,5562.98
2.00378e-5,5617.78
2.04629e-5,5692.12
2.0898000000000002e-5,5809.02
2.11928e-5,5918.54
2.14918e-5,6061.650000000001
2.1795e-5,6248.31
2.2025100000000004e-5,6424.820000000001
2.22573e-5,6640.799999999999
2.2492800000000003e-5,6907.5
2.26509e-5,7118.85
2.2810100000000004e-5,7363.58
2.2970500000000003e-5,7647.719999999999
2.3132000000000005e-5,7978.41
2.3294600000000002e-5,8365.449999999999
2.3417400000000004e-5,8700.11
2.35402e-5,9077.36
2.3664700000000004e-5,9510.28
2.3789300000000003e-5,10002.3
2.39144e-5,10566.1
2.4040700000000002e-5,11216.6
2.4124900000000003e-5,11703.9
2.4209100000000002e-5,12242.0
2.4294500000000003e-5,12846.0
2.4379900000000004e-5,13515.900000000001
2.44652e-5,14260.900000000001
2.4550600000000002e-5,15092.2
2.4637200000000002e-5,16036.6
2.47238e-5,17099.2
2.4788800000000006e-5,17985.5
2.4853700000000002e-5,18958.9
2.4918900000000003e-5,20036.2
2.4984800000000002e-5,21238.0
2.50507e-5,22570.800000000003
2.5116500000000003e-5,24053.7
2.51824e-5,25708.7
2.5248200000000003e-5,27561.6
2.5308400000000003e-5,29452.699999999997
2.53685e-5,31565.699999999997
2.5428600000000002e-5,33937.3
2.5468700000000002e-5,35682.8
2.5508700000000005e-5,37576.5
2.5548800000000002e-5,39635.0
2.55868e-5,41753.299999999996
2.5622600000000004e-5,43920.6
2.5658400000000005e-5,46269.4
2.5694200000000002e-5,48820.1
2.5730000000000003e-5,51596.0
2.57658e-5,54624.1
2.58016e-5,57935.4
2.5837400000000004e-5,61565.700000000004
2.58697e-5,65140.200000000004
2.5898300000000002e-5,68591.2
2.5927e-5,72329.2
2.59556e-5,76386.5
2.59843e-5,80800.09999999999
2.6012900000000003e-5,85612.5
2.60416e-5,90872.4
2.60702e-5,96636.7
2.6096000000000002e-5,102309.99999999999
2.61189e-5,107786.0
2.6141800000000004e-5,113717.0
2.6164800000000004e-5,120154.0
2.6187700000000003e-5,127158.0
2.6210600000000003e-5,134796.0
2.6233500000000002e-5,143147.0
2.6256400000000005e-5,152304.0
2.62769e-5,161223.0
2.62948e-5,169711.0
2.6312700000000003e-5,178891.0
2.63306e-5,188841.0
2.6348500000000004e-5,199649.0
2.6366400000000002e-5,211418.99999999997
2.6384300000000004e-5,224270.0
2.64022e-5,238341.0
2.6418300000000004e-5,252179.99999999997
2.6432600000000005e-5,265531.0
2.6447e-5,279986.0
2.64613e-5,295671.0
2.64756e-5,312734.0
2.6489900000000002e-5,331346.0
2.6504300000000003e-5,351704.0
2.6518600000000004e-5,374041.0
2.6532200000000003e-5,397344.0
2.6545100000000004e-5,421547.0
2.6558000000000002e-5,448102.99999999994
2.6570900000000003e-5,477342.0
2.6583800000000005e-5,509654.99999999994
2.6596700000000006e-5,545513.0
2.6609600000000004e-5,585485.0
2.66192e-5,618572.0
2.6628900000000002e-5,654704.0
2.66389e-5,695822.0
2.6649000000000002e-5,741177.0
2.6659000000000003e-5,791388.0
2.6669e-5,847188.0
2.6679000000000003e-5,909440.0
2.6686600000000003e-5,960967.0
2.6694100000000002e-5,1.01718e6
2.6701600000000002e-5,1.07864e6
2.6709100000000005e-5,1.14596e6
2.67169e-5,1.22206e6
2.67246e-5,1.30594e6
2.6732300000000005e-5,1.39854e6
2.6740100000000002e-5,1.50091e6
2.6747800000000005e-5,1.61418e6
2.67555e-5,1.73958e6
2.6763300000000002e-5,1.87847e6
2.67691e-5,1.99235e6
2.67753e-5,2.12473e6
2.6781700000000005e-5,2.27349e6
2.6788200000000002e-5,2.43519e6
2.6794600000000003e-5,2.61078e6
2.6801100000000003e-5,2.80119e6
2.6808200000000005e-5,3.03128e6
2.6814e-5,3.23019e6
2.6819700000000003e-5,3.44295e6
2.6825400000000002e-5,3.67009e6
2.6831200000000005e-5,3.91213e6
2.6839800000000003e-5,4.30399e6
2.6848400000000002e-5,4.73132e6
2.6857000000000004e-5,5.19457e6
2.6865500000000002e-5,5.69353e6
2.68741e-5,6.22718e6
2.6882700000000003e-5,6.79361e6
2.6894200000000004e-5,7.59459e6
2.6908500000000005e-5,8.65485e6
2.6942900000000003e-5,1.1295599999999998e7
2.6954400000000004e-5,1.21363e7
2.6965800000000002e-5,1.2919e7
2.6977300000000003e-5,1.3620000000000002e7
2.6985900000000002e-5,1.4078599999999998e7
2.6993000000000004e-5,1.44096e7
2.7001600000000002e-5,1.47388e7
2.70117e-5,1.50211e7
2.7020300000000003e-5,1.51704e7
2.70302e-5,1.5232000000000002e7
2.7039200000000004e-5,1.51843e7
2.7047800000000002e-5,1.50477e7
2.70564e-5,1.48251e7
2.70661e-5,1.44746e7
2.7075800000000003e-5,1.40286e7
2.7087300000000004e-5,1.33972e7
2.7098800000000002e-5,1.2670300000000002e7
2.7110200000000003e-5,1.18712e7
2.7127400000000004e-5,1.05883e7
2.7156100000000002e-5,8.40908e6
2.71704e-5,7.37538e6
2.71818e-5,6.59934e6
2.7190400000000003e-5,6.05285e6
2.7199e-5,5.53955e6
2.72076e-5,5.0609e6
2.7216200000000002e-5,4.6175e6
2.7224800000000004e-5,4.20925e6
2.7233400000000003e-5,3.8354e6
2.7242000000000004e-5,3.49473e6
2.72477e-5,3.28527e6
2.7253500000000003e-5,3.08931e6
2.7261700000000004e-5,2.83007e6
2.72692e-5,2.6151e6
2.72767e-5,2.41936e6
2.7284300000000002e-5,2.24141e6
2.7291800000000002e-5,2.0798100000000002e6
2.72993e-5,1.93315e6
2.7306300000000003e-5,1.80917e6
2.73133e-5,1.6959e6
2.7320300000000003e-5,1.5924e6
2.73272e-5,1.49777e6
2.7334200000000003e-5,1.41118e6
2.7341200000000002e-5,1.33186e6
2.7348200000000004e-5,1.25912e6
2.7355200000000005e-5,1.19233e6
2.7364500000000002e-5,1.11153e6
2.7373800000000002e-5,1.03905e6
2.73824e-5,978623.0
2.7391000000000003e-5,923659.9999999999
2.73996e-5,873529.0000000001
2.74082e-5,827677.0000000001
2.7419600000000004e-5,772375.0
2.7431100000000002e-5,722861.0
2.7442600000000004e-5,678328.0
2.7454000000000002e-5,638100.0
2.7465500000000003e-5,601617.0
2.7476200000000003e-5,570391.0
2.7487000000000003e-5,541711.0
2.75013e-5,506945.0
2.75156e-5,475642.00000000006
2.7529900000000002e-5,447335.99999999994
2.7544300000000003e-5,421642.0
2.7558600000000004e-5,398234.0
2.75729e-5,376840.0
2.7588700000000002e-5,355357.0
2.7605900000000003e-5,334072.0
2.76231e-5,314753.0
2.76402e-5,297159.0
2.7657400000000004e-5,281084.0
2.76746e-5,266353.0
2.76918e-5,252816.99999999997
2.7709000000000005e-5,240347.0
2.77283e-5,227453.0
2.77498e-5,214377.0
2.7771300000000003e-5,202462.0
2.7792800000000003e-5,191574.0
2.7814300000000002e-5,181594.0
2.7835800000000005e-5,172423.0
2.7857300000000002e-5,163974.0
2.78895e-5,152493.0
2.7918100000000003e-5,143336.0
2.79468e-5,135035.0
2.7975500000000003e-5,127485.0
2.8004100000000002e-5,120595.99999999999
2.8032800000000004e-5,114293.0
2.8061400000000002e-5,108510.0
