E(MeV),xs(mb)
1.0e-11,111222.0
1.03223e-11,109488.99999999999
1.06549e-11,107783.99999999999
1.0998399999999998e-11,106105.99999999999
1.13527e-11,104454.0
1.1718599999999999e-11,102828.99999999999
1.2096199999999998e-11,101230.0
1.24861e-11,99655.2
1.2888399999999999e-11,98106.50000000001
1.3303799999999998e-11,96582.00000000001
1.37325e-11,95082.2
1.41751e-11,93605.90000000001
1.4631799999999997e-11,92153.6
1.51034e-11,90724.0
1.5590099999999998e-11,89317.6
1.6092599999999998e-11,87933.29999999999
1.66111e-11,86571.5
1.71465e-11,85231.0
1.7699e-11,83912.4
1.8269399999999998e-11,82614.5
1.88581e-11,81337.8
1.94659e-11,80081.1
2.00931e-11,78844.90000000001
2.0740699999999998e-11,77628.2
2.1408999999999998e-11,76431.3
2.2099099999999997e-11,75253.3
2.28111e-11,74094.6
2.3546399999999998e-11,72954.1
2.4305099999999997e-11,71832.3
2.50884e-11,70728.3
2.5896799999999997e-11,69642.3
2.67315e-11,68573.5
2.75928e-11,67522.3
2.8482199999999998e-11,66487.7
2.93999e-11,65470.100000000006
3.0347499999999995e-11,64468.7
3.13253e-11,63483.799999999996
3.2335e-11,62514.5
3.33769e-11,61561.2
3.44526e-11,60623.1
3.55627e-11,59700.49999999999
3.67089e-11,58792.600000000006
3.7891799999999997e-11,57899.700000000004
3.9113e-11,57021.2
4.0373400000000003e-11,56157.1
4.1674599999999996e-11,55307.00000000001
4.3017399999999996e-11,54470.9
4.440389999999999e-11,53648.3
4.58347e-11,52839.4
4.7311899999999994e-11,52043.5
4.883639999999999e-11,51260.899999999994
5.0410399999999995e-11,50490.899999999994
5.20348e-11,49733.799999999996
5.37119e-11,48988.899999999994
5.54426e-11,48256.6
5.7229499999999995e-11,47536.1
5.907359999999999e-11,46827.7
6.09775e-11,46130.899999999994
6.29424e-11,45445.799999999996
6.497099999999999e-11,44771.9
6.70645e-11,44109.299999999996
6.9226e-11,43457.7
7.145659999999999e-11,42817.0
7.37596e-11,42187.0
7.61364e-11,41567.5
7.85902e-11,40958.4
8.11227e-11,40359.6
8.37372e-11,39770.8
8.643549999999999e-11,39192.0
8.922119999999998e-11,38622.8
9.209619999999999e-11,38063.4
9.506439999999999e-11,37513.4
9.81277e-11,36972.8
1.01291e-10,36441.2
1.04554e-10,35918.9
1.07924e-10,35405.4
1.11402e-10,34900.799999999996
1.15235e-10,34372.0
1.1919999999999999e-10,33852.9
1.23302e-10,33343.4
1.27545e-10,32843.200000000004
1.31934e-10,32352.3
1.36474e-10,31870.5
1.4117e-10,31397.6
1.4602800000000002e-10,30933.5
1.51053e-10,30478.0
1.56251e-10,30031.1
1.61628e-10,29592.6
1.6719e-10,29162.3
1.72943e-10,28740.100000000002
1.78894e-10,28325.9
1.8505000000000002e-10,27919.5
1.91418e-10,27520.899999999998
1.98005e-10,27129.9
2.04818e-10,26746.3
2.1186600000000003e-10,26370.2
2.1915700000000002e-10,26001.2
2.2669800000000004e-10,25639.4
2.34499e-10,25284.5
2.42569e-10,24936.600000000002
2.50916e-10,24595.4
2.5955e-10,24260.899999999998
2.6848100000000005e-10,23932.899999999998
2.7772e-10,23611.399999999998
2.87277e-10,23296.100000000002
2.97163e-10,22987.199999999997
3.07388e-10,22684.3
3.1864e-10,22369.0
3.30301e-10,22060.5
3.42392e-10,21758.5
3.54922e-10,21462.9
3.67914e-10,21173.600000000002
3.81379e-10,20890.5
3.9533900000000004e-10,20613.5
4.09807e-10,20342.4
4.24808e-10,20077.1
4.4035500000000003e-10,19817.7
4.56473e-10,19563.7
4.73179e-10,19315.4
4.90499e-10,19072.4
5.08451e-10,18834.7
5.270620000000001e-10,18602.2
5.463510000000001e-10,18374.8
5.67547e-10,18139.4
5.89565e-10,17909.5
6.12437e-10,17684.899999999998
6.36196e-10,17465.6
6.608780000000001e-10,17251.399999999998
6.865160000000001e-10,17042.1
7.131500000000001e-10,16837.8
7.40816e-10,16638.2
7.69556e-10,16443.2
8.011060000000001e-10,16242.4
8.339440000000001e-10,16046.6
8.681330000000001e-10,15855.5
9.037190000000002e-10,15669.2
9.40768e-10,15487.4
9.79331e-10,15310.2
1.01948e-9,15137.199999999999
1.06127e-9,14968.6
1.1071100000000001e-9,14795.5
1.1549400000000001e-9,14626.9
1.20483e-9,14462.6
1.25687e-9,14302.5
1.31117e-9,14146.5
1.36781e-9,13994.5
1.4299200000000002e-9,13839.1
1.49484e-9,13687.800000000001
1.5627200000000002e-9,13540.6
1.63367e-9,13397.300000000001
1.7078500000000003e-9,13257.8
1.7853900000000002e-9,13122.0
1.87041e-9,12983.499999999998
1.9594800000000004e-9,12848.900000000001
2.05278e-9,12717.9
2.15054e-9,12590.5
2.25772e-9,12461.1
2.37023e-9,12335.3
2.4883500000000004e-9,12213.099999999999
2.61236e-9,12094.400000000001
2.7425500000000002e-9,11979.0
2.8853300000000004e-9,11862.1
3.03553e-9,11748.5
3.1935600000000003e-9,11638.3
3.3598100000000002e-9,11531.199999999999
3.5421900000000006e-9,11423.099999999999
3.7344800000000005e-9,11318.1
3.9372e-9,11216.3
4.159720000000001e-9,11113.699999999999
4.39482e-9,11014.2
4.643200000000001e-9,10917.8
4.916010000000001e-9,10820.8
5.2048300000000005e-9,10727.0
5.510650000000001e-9,10636.099999999999
5.84676e-9,10544.800000000001
6.2033800000000006e-9,10456.6
6.58176e-9,10371.300000000001
6.99797e-9,10285.800000000001
7.440540000000001e-9,10203.199999999999
7.91107e-9,10123.4
8.42917e-9,10043.599999999999
8.981210000000002e-9,9966.55
9.589670000000001e-9,9889.73
1.02393e-8,9815.630000000001
1.09561e-8,9741.89
1.17231e-8,9670.83
1.25704e-8,9600.23
1.34789e-8,9532.28
1.44836e-8,9464.890000000001
1.55632e-8,9400.080000000002
1.67588e-8,9335.93
1.80843e-8,9272.57
1.95147e-8,9211.740000000002
2.11027e-8,9151.76
2.2868300000000003e-8,9092.72
2.47817e-8,9036.15
2.52522e-8,9023.25
2.5299999999999998e-8,9021.96
2.74749e-8,8966.97
2.9899900000000004e-8,8913.0
3.26077e-8,8860.13
3.5636e-8,8808.41
3.90282e-8,8757.91
4.28336e-8,8708.67
4.71095e-8,8660.74
5.1922e-8,8614.15
5.7347400000000006e-8,8568.91
6.347360000000001e-8,8525.04
7.04028e-8,8482.58
7.825400000000001e-8,8441.53
8.73493e-8,8401.15
9.770830000000001e-8,8362.27
1.09759e-7,8324.210000000001
1.23556e-7,8287.699999999999
1.39678e-7,8252.119999999999
1.58238e-7,8218.12
1.80022e-7,8185.129999999999
2.05675e-7,8153.2300000000005
2.36478e-7,8121.969999999999
2.73047e-7,8091.929999999999
3.16607e-7,8063.11
3.69451e-7,8035.15
4.3385999999999994e-7,8008.12
5.12742e-7,7982.04
6.09819e-7,7956.9400000000005
7.31438e-7,7932.54
8.847619999999999e-7,7908.839999999999
1.0796099999999999e-6,7885.78
1.62073e-6,7842.97
3.5516499999999997e-6,7767.9
9.14388e-6,7663.700000000001
2.47238e-5,7477.26
5.0514300000000005e-5,7241.25
8.306080000000001e-5,7006.7300000000005
0.000122103,6786.0199999999995
0.000168491,6581.74
0.00022409500000000003,6393.12
0.00029204400000000004,6217.93
0.000376414,6055.01
0.00048068400000000005,5906.97
0.000615203,5769.04
0.000786222,5644.48
0.00102096,5525.08
0.0013517300000000002,5408.71
0.0021191499999999998,5200.9400000000005
0.0022864499999999998,5127.5
0.0023758200000000003,5059.83
0.00243552,4983.18
0.00247457,4900.43
0.0025008300000000003,4813.75
0.00251952,4722.7699999999995
0.00253353,4626.15
0.00254287,4539.64
0.00255222,4425.33
0.00255923,4311.72
0.0025639,4216.43
0.00256857,4099.03
0.00257207,3991.34
0.00257558,3860.97
0.00257885,3712.4100000000003
0.0025813000000000003,3579.5699999999997
0.00258328,3456.6499999999996
0.00258761,3162.95
0.00258863,3110.3999999999996
0.00258934,3092.1400000000003
0.0025894499999999997,3091.54
0.0025898500000000003,3096.15
0.00259029,3117.36
0.00259064,3151.37
0.00259099,3206.51
0.00259123,3258.9
0.0025914600000000003,3327.52
0.00259169,3416.77
0.00259187,3500.72
0.00259201,3584.37
0.00259219,3704.7400000000002
0.00259236,3851.9100000000003
0.0025924999999999998,3983.92
0.0025926300000000003,4138.4400000000005
0.0025927600000000004,4320.05
0.00259289,4534.3099999999995
0.00259298,4698.65
0.00259307,4883.04
0.0025931500000000002,5090.26
0.00259324,5323.610000000001
0.00259333,5586.79
0.00259342,5884.22
0.0025935000000000003,6220.679999999999
0.00259359,6601.88
0.00259368,7034.16
0.00259377,7524.87
0.00259382,7888.45
0.0025938800000000002,8284.31
0.00259394,8715.3
0.002594,9184.56
0.00259406,9695.44
0.00259412,10251.6
0.00259418,10856.699999999999
0.00259423,11515.0
0.00259429,12156.499999999998
0.00259436,13090.2
0.00259443,14121.1
0.0025945,15258.199999999999
0.00259457,16511.100000000002
0.00259464,17889.3
0.00259471,19404.2
0.00259478,21065.7
0.00259485,22885.6
0.00259492,24875.0
0.00259499,27046.0
0.0025950400000000003,28800.4
0.0025951,30883.3
0.00259516,33113.1
0.0025952099999999997,35496.5
0.00259527,38040.0
0.0025953300000000003,40749.700000000004
0.00259539,43631.200000000004
0.00259545,46689.99999999999
0.00259553,51348.1
0.0025956100000000004,56238.700000000004
0.00259569,61495.100000000006
0.00259577,67124.8
0.0025958500000000002,73127.4
0.00259594,80169.59999999999
0.00259605,89079.9
0.00259615,98583.9
0.0025962800000000003,110942.0
0.0025964200000000003,125235.00000000001
0.00259661,145283.0
0.00259698,186446.0
0.00259717,206047.0
0.00259731,219633.0
0.00259745,231874.0
0.00259758,241794.99999999997
0.0025977,249362.0
0.0025978,254752.0
0.0025979,258461.0
0.00259802,261668.0
0.0025981299999999997,263001.0
0.0025981700000000003,263126.0
0.00259828,262327.0
0.0025983800000000004,260266.99999999997
0.00259849,256989.0
0.00259862,251083.0
0.00259875,243457.0
0.0025989,232921.99999999997
0.0025990500000000003,220811.0
0.00259923,204072.0
0.00259974,156003.0
0.00259992,138678.0
0.0026000700000000003,126027.0
0.0026002200000000003,114267.99999999999
0.00260032,106973.99999999999
0.0026004200000000004,100137.00000000001
0.00260051,93765.8
0.00260061,87861.1
0.00260071,82417.70000000001
0.0026008,77762.8
0.0026008900000000002,73484.2
0.0026009799999999997,69565.7
0.00260107,65990.59999999999
0.0026011700000000003,62739.700000000004
0.0026012599999999998,59793.799999999996
0.00260135,57132.6
0.0026014400000000004,54736.9
0.00260156,51920.6
0.00260168,49496.0
0.0026018,47508.8
0.0026019100000000002,45806.7
0.00260203,44358.8
0.00260215,43138.1
0.0026023,41823.0
0.00260245,40821.4
0.00260261,40094.700000000004
0.00260276,39612.7
0.0026029200000000003,39353.0
0.00260303,39294.7
0.00260318,39381.2
0.00260336,39714.6
0.00260353,40298.99999999999
0.00260371,41143.200000000004
0.0026038800000000003,42264.5
0.00260406,43688.799999999996
0.00260419,44976.700000000004
0.00260432,46472.8
0.00260446,48297.600000000006
0.0026046,50407.0
0.00260474,52835.5
0.00260488,55621.5
0.00260502,58809.1
0.00260516,62445.700000000004
0.00260526,65499.6
0.00260536,68858.2
0.00260548,73060.8
0.0026055799999999997,76860.09999999999
0.00260568,80989.2
0.0026057700000000003,85467.9
0.00260587,90315.20000000001
0.00260597,95548.90000000001
0.00260606,101184.99999999999
0.00260616,107237.0
0.0026063,116428.0
0.0026064300000000003,126101.0
0.00260656,136566.0
0.00260669,147810.0
0.00260682,159791.0
0.00260697,174861.0
0.00260718,195825.0
0.0026076800000000002,250260.99999999997
0.00260791,274311.0
0.0026081200000000002,293400.0
0.00260825,304655.0
0.00260839,314444.0
0.00260852,322444.0
0.00260866,328547.0
0.00260879,332743.0
0.00260892,334935.0
0.00260899,335266.0
0.0026091400000000002,334017.0
0.0026092800000000003,330533.0
0.0026094300000000003,324182.0
0.00260955,317394.0
0.00260967,309192.0
0.00260985,294567.0
0.00261003,278376.0
0.0026102,260635.0
0.00261055,222707.0
0.0026108600000000004,188942.0
0.00261102,172808.0
0.00261117,157459.0
0.0026113300000000002,143048.0
0.00261145,132098.0
0.0026116000000000004,120356.0
0.0026117400000000004,109588.0
0.00261184,102948.0
0.00261194,96729.8
0.00261203,90923.70000000001
0.0026121300000000003,85515.1
0.0026122299999999997,80366.70000000001
0.00261233,75487.4
0.00261243,70985.9
0.00261254,66839.0
0.00261264,63022.9
0.00261274,59514.4
0.00261284,56290.6
0.0026129400000000002,53329.1
0.0026130800000000003,49631.299999999996
0.0026132200000000003,46474.6
0.00261335,43648.6
0.00261349,41114.3
0.00261362,38837.9
0.00261375,36788.1
0.0026138900000000002,34937.9
0.00261402,33263.3
0.00261416,31743.600000000002
0.00261434,29926.7
0.00261449,28564.4
0.00261467,27083.7
0.00261485,25760.800000000003
0.00261503,24573.2
0.0026152799999999998,23168.4
0.00261552,21935.4
0.00261576,20846.0
0.0026160000000000003,19877.4
0.00261624,19011.6
0.0026164900000000004,18233.600000000002
0.00261685,17205.5
0.00261721,16315.800000000001
0.00261758,15539.400000000001
0.00261794,14857.0
0.0026183,14253.199999999999
0.00261879,13541.4
0.00261929,12927.3
0.00261978,12392.7
0.00262027,11923.6
0.00262092,11381.699999999999
0.00262159,10905.199999999999
0.00262227,10494.4
0.0026227100000000003,10250.900000000001
0.00262361,9823.63
0.00262451,9461.58
0.0026254200000000003,9147.259999999998
0.00262632,8875.49
0.0026275400000000003,8565.87
0.00262875,8304.08
0.00263056,7979.7
0.00263238,7716.87
0.0026341999999999997,7499.84
0.00263638,7284.79
0.00263856,7106.76
0.0026418300000000004,6890.87
0.0026451,6719.58
0.00264946,6539.5599999999995
0.00265407,6391.4
0.00265891,6267.75
0.00266618,6124.81
0.0026758700000000003,5985.43
0.00268556,5883.12
0.0027001,5771.9800000000005
0.00272045,5666.22
0.0027446799999999998,5581.98
0.00278224,5497.46
0.0028357800000000004,5423.78
0.00292398,5353.349999999999
0.00307953,5285.389999999999
0.00331796,5229.08
0.00332375,5228.900000000001
0.0033484,5237.05
0.0033587400000000002,5259.14
0.00336442,5296.31
0.00336782,5348.19
0.00336987,5407.36
0.00337112,5465.27
0.0033722500000000002,5544.27
0.00337309,5629.84
0.0033739,5750.63
0.00337444,5866.6
0.00337485,5985.34
0.00337512,6091.42
0.00337541,6232.22
0.00337562,6368.599999999999
0.0033758300000000002,6542.6
0.0033759700000000003,6686.49
0.00337612,6859.110000000001
0.00337626,7067.490000000001
0.0033764,7320.1
0.00337651,7544.7699999999995
0.00337661,7805.16
0.00337672,8107.08
0.00337683,8457.0
0.00337693,8862.23
0.00337704,9330.72
0.0033771499999999998,9871.33
0.00337725,10493.5
0.0033773300000000004,11034.699999999999
0.00337742,11635.1
0.0033775,12300.0
0.0033775800000000003,13034.5
0.00337766,13843.9
0.00337774,14733.5
0.00337783,15708.7
0.00337791,16774.4
0.00337799,17935.9
0.0033780700000000004,19197.5
0.00337817,20792.4
0.00337825,22264.300000000003
0.00337833,23845.0
0.00337841,25536.500000000004
0.0033784900000000005,27340.300000000003
0.00337861,30256.9
0.00337873,33423.5
0.0033788299999999998,36134.5
0.00337894,39485.8
0.00337906,43019.2
0.0033792300000000004,48608.6
0.00337951,58427.8
0.0033797700000000003,67377.4
0.00337994,73138.4
0.00338008,77461.90000000001
0.00338024,81896.40000000001
0.00338037,85257.79999999999
0.00338049,87731.9
0.00338062,89884.7
0.0033807299999999998,91272.40000000001
0.00338084,92228.0
0.0033809499999999998,92694.7
0.003381,92754.7
0.00338109,92613.2
0.0033812000000000004,91979.7
0.0033813100000000002,90903.6
0.00338142,89387.1
0.00338155,87095.2
0.0033816700000000002,84397.3
0.0033818000000000003,81028.90000000001
0.00338196,76280.5
0.00338211,71651.3
0.0033823300000000002,63968.2
0.0033826999999999998,51111.700000000004
0.00338287,45412.9
0.00338304,40031.100000000006
0.00338317,36335.700000000004
0.00338329,32881.0
0.00338339,30457.399999999998
0.00338348,28182.5
0.00338354,26749.5
0.0033836499999999998,24504.100000000002
0.00338375,22443.5
0.00338383,21016.499999999996
0.0033839100000000004,19688.600000000002
0.00338399,18456.5
0.00338407,17316.7
0.00338414,16265.099999999999
0.0033842200000000003,15297.8
0.0033843000000000002,14410.199999999999
0.00338438,13597.999999999998
0.00338448,12675.4
0.0033845800000000003,11855.7
0.0033846699999999998,11129.7
0.00338477,10488.699999999999
0.00338487,9924.22
0.00338497,9428.369999999999
0.00338507,8993.64
0.0033851700000000003,8613.2
0.0033852699999999997,8280.58
0.00338536,7990.070000000001
0.0033854700000000002,7729.99
0.00338557,7492.61
0.00338571,7225.27
0.00338586,7004.44
0.003386,6821.23
0.00338621,6601.34
0.0033864200000000002,6430.93
0.00338667,6276.5599999999995
0.00338699,6126.14
0.0033874200000000004,5979.14
0.0033878400000000005,5870.099999999999
0.00338855,5738.5
0.00338941,5629.780000000001
0.00339054,5532.36
0.00339168,5466.56
0.00339281,5419.7699999999995
0.00339486,5363.51
0.0033969,5327.759999999999
0.00340144,5282.99
0.00341053,5245.99
0.00343416,5218.3099999999995
0.00358195,5182.9
0.00475876,5026.41
0.0047715100000000005,5035.47
0.00477287,5051.370000000001
0.00477353,5082.639999999999
0.0047739900000000005,5135.27
0.00477427,5188.46
0.00477454,5266.62
0.00477482,5378.71
0.00477502,5491.33
0.00477523,5633.740000000001
0.00477543,5810.889999999999
0.00477564,6027.48
0.00477584,6287.66
0.00477605,6594.46
0.00477625,6949.46
0.004776460000000001,7352.089999999999
0.004776659999999999,7799.37
0.00477687,8285.48
0.00477726,9282.09
0.00477774,10535.000000000002
0.00477801,11160.699999999999
0.00477825,11620.699999999999
0.004778419999999999,11892.8
0.0047786,12112.0
0.004778780000000001,12258.6
0.00477896,12318.499999999998
0.004779,12320.4
0.00477918,12278.3
0.00477936,12152.300000000001
0.004779530000000001,11970.0
0.004779670000000001,11754.7
0.00477987,11389.800000000001
0.00478008,10951.800000000001
0.00478029,10462.400000000001
0.004781049999999999,8483.800000000001
0.00478132,7825.9
0.00478154,7361.889999999999
0.00478176,6920.27
0.004781990000000001,6536.34
0.0047821999999999995,6228.6
0.00478241,5977.66
0.0047826100000000005,5769.51
0.00478282,5599.85
0.00478302,5463.9
0.00478316,5389.56
0.00478343,5273.570000000001
0.0047837,5192.46
0.00478411,5116.76
0.00478459,5071.4
0.00478528,5045.06
0.0047877200000000005,5028.65
0.00484464,5013.05
0.00555183,4896.61
0.0056891,4870.84
0.00570374,4880.27
0.00570731,4903.42
0.00570829,4933.89
0.0057088799999999995,4983.7300000000005
0.00570927,5048.94
0.00570956,5126.9400000000005
0.00570986,5241.95
0.00571005,5346.12
0.00571025,5478.07
0.00571045,5643.46
0.00571062,5826.0199999999995
0.0057108,6045.37
0.00571098,6306.37
0.00571115,6613.74
0.005711330000000001,6971.95
0.0057114900000000005,7336.1900000000005
0.0057116300000000005,7718.91
0.0057117800000000005,8142.77
0.00571193,8608.49
0.0057120800000000005,9115.769999999999
0.00571227,9835.64
0.00571245,10598.300000000001
0.005712640000000001,11414.2
0.005712920000000001,12714.7
0.005713510000000001,15545.7
0.00571378,16766.5
0.00571401,17677.2
0.00571417,18265.2
0.00571439,18882.5
0.0057145500000000005,19232.4
0.00571474,19526.2
0.00571491,19659.7
0.005715,19676.2
0.0057151699999999995,19612.7
0.00571532,19448.0
0.00571552,19099.1
0.00571568,18710.8
0.0057158600000000006,18144.4
0.0057160399999999995,17497.3
0.00571626,16601.1
0.00571655,15258.5
0.00571722,12056.4
0.0057174800000000005,10862.400000000001
0.00571766,10120.800000000001
0.00571785,9394.58
0.00571799,8865.859999999999
0.00571814,8378.349999999999
0.00571829,7932.57
0.00571843,7528.41
0.00571859,7153.44
0.00571875,6800.07
0.005718910000000001,6491.25
0.005719070000000001,6223.8
0.00571923,5994.19
0.0057194,5798.77
0.00571959,5602.33
0.00571979,5444.19
0.0057199799999999995,5318.29
0.00572018,5219.089999999999
0.00572048,5109.77
0.00572077,5035.790000000001
0.00572116,4974.01
0.00572175,4926.7300000000005
0.005722540000000001,4901.049999999999
0.0057245,4881.31
0.00573372,4862.79
0.00617605,4736.13
0.00643666,4632.41
0.00664727,4517.38
0.0068168,4392.54
0.00695955,4255.63
0.00714767,4043.61
0.00719412,4010.96
0.00720766,4008.02
0.00723213,4016.02
0.00725289,4045.7099999999996
0.0072587400000000005,4069.5699999999997
0.00725978,4089.06
0.007260290000000001,4112.4
0.00726081,4156.4800000000005
0.00726113,4201.5
0.00726145,4266.429999999999
0.00726178,4358.16
0.00726202,4449.4
0.00726226,4564.009999999999
0.007262500000000001,4705.9
0.00726274,4878.9
0.00726298,5086.52
0.00726323,5331.59
0.00726348,5626.17
0.00726374,5986.4800000000005
0.00726401,6393.2
0.007264260000000001,6813.33
0.00726458,7398.88
0.0072653200000000005,8813.61
0.00726565,9387.55
0.00726589,9771.779999999999
0.00726609,10048.4
0.00726629,10286.699999999999
0.00726651,10477.8
0.00726673,10606.4
0.00726697,10659.9
0.007267000000000001,10660.8
0.0072672299999999995,10619.400000000001
0.007267470000000001,10491.6
0.00726772,10269.8
0.007267920000000001,10044.900000000001
0.00726819,9651.310000000001
0.007268360000000001,9379.32
0.0072687,8781.449999999999
0.00726944,7377.54
0.00726977,6773.7699999999995
0.00727003,6343.47
0.00727031,5930.25
0.00727049,5682.839999999999
0.00727076,5364.37
0.0072710100000000005,5109.87
