E(MeV),xs(mb)
1.0e-11,32475.2
1.03223e-11,31975.8
1.06549e-11,31484.6
1.0998399999999998e-11,31001.1
1.13527e-11,30525.600000000002
1.1718599999999999e-11,30057.6
1.2096199999999998e-11,29597.4
1.24861e-11,29144.399999999998
1.2888399999999999e-11,28698.899999999998
1.3303799999999998e-11,28260.399999999998
1.37325e-11,27829.199999999997
1.41751e-11,27404.899999999998
1.4631799999999997e-11,26987.600000000002
1.51034e-11,26576.9
1.5590099999999998e-11,26173.1
1.6092599999999998e-11,25775.7
1.66111e-11,25384.8
1.71465e-11,25000.300000000003
1.7699e-11,24622.199999999997
1.8269399999999998e-11,24250.1
1.88581e-11,23884.2
1.94659e-11,23524.2
2.00931e-11,23170.3
2.0740699999999998e-11,22822.0
2.1408999999999998e-11,22479.6
2.2099099999999997e-11,22142.8
2.28111e-11,21811.5
2.3546399999999998e-11,21485.699999999997
2.4305099999999997e-11,21165.4
2.50884e-11,20850.300000000003
2.5896799999999997e-11,20540.5
2.67315e-11,20235.8
2.75928e-11,19936.2
2.8482199999999998e-11,19641.6
2.93999e-11,19351.9
3.0347499999999995e-11,19067.1
3.13253e-11,18787.100000000002
3.2335e-11,18511.7
3.33769e-11,18241.1
3.44526e-11,17974.9
3.55627e-11,17713.399999999998
3.67089e-11,17456.2
3.7891799999999997e-11,17203.4
3.9113e-11,16954.899999999998
4.0373400000000003e-11,16710.7
4.1674599999999996e-11,16470.6
4.3017399999999996e-11,16234.699999999999
4.440389999999999e-11,16002.8
4.58347e-11,15774.900000000001
4.7311899999999994e-11,15551.0
4.894e-11,15316.4
5.06241e-11,15086.2
5.2366099999999994e-11,14860.3
5.4168099999999994e-11,14638.599999999999
5.6032099999999997e-11,14421.0
5.79602e-11,14207.5
5.99547e-11,13998.1
6.201779999999999e-11,13792.599999999999
6.415189999999999e-11,13591.0
6.63594e-11,13393.3
6.864289999999999e-11,13199.4
7.1005e-11,13009.2
7.34484e-11,12822.6
7.59758e-11,12639.7
7.85902e-11,12460.3
8.129459999999999e-11,12284.5
8.4092e-11,12112.099999999999
8.69858e-11,11943.1
8.997899999999999e-11,11777.4
9.307529999999999e-11,11615.1
9.627809999999999e-11,11456.0
9.95912e-11,11300.1
1.03019e-10,11147.3
1.06564e-10,10997.699999999999
1.10231e-10,10851.1
1.1402399999999999e-10,10707.599999999999
1.1794700000000002e-10,10567.0
1.22006e-10,10429.3
1.2620400000000002e-10,10294.5
1.30547e-10,10162.500000000002
1.3532500000000002e-10,10025.4
1.40278e-10,9891.33
1.45412e-10,9760.36
1.50735e-10,9632.34
1.56251e-10,9507.32
1.61971e-10,9385.160000000002
1.67898e-10,9265.9
1.74044e-10,9149.42
1.80414e-10,9035.74
1.87018e-10,8924.75
1.93862e-10,8816.46
2.0095800000000003e-10,8710.779999999999
2.0831300000000003e-10,8607.710000000001
2.1593800000000001e-10,8507.16
2.2431500000000002e-10,8403.43
2.33017e-10,8302.45
2.42057e-10,8204.179999999998
2.51448e-10,8108.570000000001
2.61203e-10,8015.56
2.7133600000000003e-10,7925.099999999999
2.81863e-10,7837.150000000001
2.92798e-10,7751.67
3.04799e-10,7664.049999999999
3.1729500000000004e-10,7579.06
3.30301e-10,7496.660000000001
3.43843e-10,7416.76
3.5793700000000003e-10,7339.36
3.72612e-10,7264.35
3.87885e-10,7191.72
4.04641e-10,7117.75
4.2212e-10,7046.2699999999995
4.4035500000000003e-10,6977.24
4.5937700000000005e-10,6910.580000000001
4.79221e-10,6846.2300000000005
5.009820000000001e-10,6781.09
5.23727e-10,6718.37
5.47509e-10,6657.99
5.73581e-10,6597.1900000000005
6.00894e-10,6538.8099999999995
6.29507e-10,6482.78
6.608780000000001e-10,6426.64
6.93815e-10,6372.89
7.2839e-10,6321.469999999999
7.663090000000001e-10,6270.18
8.062010000000001e-10,6221.2300000000005
8.49969e-10,6172.63
8.96107e-10,6126.36
9.46752e-10,6080.62
1.00026e-9,6037.18
1.05903e-9,5994.41
1.1212500000000002e-9,5953.9
1.18964e-9,5914.16
1.26488e-9,5875.320000000001
1.34486e-9,5838.7
1.4329400000000002e-9,5803.02
1.53002e-9,5768.379999999999
1.6371300000000001e-9,5734.860000000001
1.75545e-9,5702.51
1.8863000000000004e-9,5671.389999999999
2.0312e-9,5641.54
2.1918600000000003e-9,5612.99
2.37525e-9,5585.05
2.57942e-9,5558.54
2.81303e-9,5532.849999999999
3.08079e-9,5508.12
3.38118e-9,5484.950000000001
3.72659e-9,5462.85
4.13343e-9,5441.46
4.604090000000001e-9,5421.35
5.16099e-9,5402.19
5.8220900000000005e-9,5384.1
6.609650000000001e-9,5367.16
7.56748e-9,5351.21
8.75618e-9,5336.14
1.02393e-8,5322.12
1.2101e-8,5309.25
1.45143e-8,5297.33
1.77059e-8,5286.400000000001
2.2060900000000003e-8,5276.42
2.52522e-8,5271.21
2.5299999999999998e-8,5271.15
3.2884600000000005e-8,5262.6900000000005
4.43075e-8,5255.21
6.240890000000001e-8,5248.71
9.36623e-8,5243.13
1.53297e-7,5238.4800000000005
2.8604899999999997e-7,5234.71
6.60842e-7,5231.79
2.74082e-6,5229.29
0.00125813,5048.61
0.0018727799999999999,4929.13
0.00228247,4818.67
0.0025775999999999998,4708.11
0.0027879299999999997,4600.11
0.00294745,4491.21
0.00307798,4373.719999999999
0.0031867600000000003,4245.54
0.00327379,4112.9
0.0033445000000000003,3975.88
0.0033988900000000003,3845.23
0.0034478399999999998,3701.77
0.00348591,3567.21
0.0035185399999999997,3431.25
0.00354574,3299.65
0.00357293,3146.7900000000004
0.00359469,3005.56
0.00361644,2843.66
0.0036327600000000005,2705.86
0.0036490800000000003,2551.31
0.0036654,2376.9700000000003
0.00367627,2247.96
0.00368715,2107.27
0.00369803,1953.48
0.00370619,1828.53
0.00371435,1695.0
0.0037225100000000005,1551.8400000000001
0.00373066,1398.47
0.00373882,1234.6200000000001
0.0037456200000000003,1090.08
0.00375242,938.672
0.00375922,781.391
0.0037735,443.084
0.00377715,358.981
0.0037797,302.267
0.0037816200000000003,261.118
0.00378324,227.91100000000003
0.00378485,196.202
0.0037861400000000003,172.099
0.00378725,152.513
0.00378835,134.002
0.00378924,120.04999999999998
0.00379005,107.916
0.0037908,97.4732
0.00379155,87.73250000000002
0.00379211,80.9194
0.00379267,74.5547
0.00379315,69.4376
0.00379364,64.6906
0.0037941200000000002,60.3309
0.00379461,56.3771
0.00379509,52.8481
0.0037954200000000003,50.6886
0.00379576,48.697100000000006
0.0037961,46.939099999999996
0.0037964400000000003,45.4223
0.00379685,43.93169999999999
0.00379721,42.9328
0.0037975599999999997,42.229200000000006
0.0037979,41.843
0.00379824,41.7429
0.00379857,41.921299999999995
0.00379886,42.3138
0.0037992,43.0657
0.00379954,44.1409
0.00379988,45.5502
0.00380022,47.304199999999994
0.0038005499999999998,49.357499999999995
0.00380088,51.760099999999994
0.0038011,53.5614
0.00380144,56.6537
0.00380178,60.146100000000004
0.00380212,64.0519
0.00380246,68.3847
0.00380276,72.6612
0.00380307,77.3053
0.0038033800000000003,82.3281
0.00380368,87.7408
0.00380409,95.5842
0.00380445,103.055
0.0038048,111.114
0.00380516,119.781
0.00380552,129.079
0.00380588,139.028
0.00380627,150.7
0.0038066700000000003,163.777
0.00380708,177.80700000000002
0.00380749,192.82999999999998
0.0038079000000000003,208.885
0.00380831,226.016
0.0038087100000000003,244.26700000000002
0.00380912,263.685
0.00380953,284.318
0.00381007,313.809
0.0038105,338.498
0.0038109600000000004,366.866
0.0038114200000000003,397.085
0.0038118699999999998,429.24100000000004
0.0038123300000000005,463.42499999999995
0.0038127900000000004,499.732
0.0038133,542.6899999999999
0.0038138100000000004,588.544
0.00381432,637.453
0.0038148300000000004,689.586
0.00381534,745.124
0.0038159200000000004,812.4230000000001
0.0038165300000000003,889.043
0.00381714,971.5450000000001
0.00381776,1060.3400000000001
0.0038183699999999998,1155.8600000000001
0.00381898,1258.57
0.00381959,1369.0
0.0038201999999999997,1487.6799999999998
0.00382082,1615.21
0.00382143,1752.25
0.00382204,1899.49
0.00382265,2057.7000000000003
0.0038232599999999998,2227.69
0.00382387,2410.38
0.00382449,2606.73
0.0038251,2817.83
0.00382571,3044.84
0.00382632,3289.04
0.00382693,3551.81
0.00382755,3834.7000000000003
0.00382816,4139.38
0.00382877,4467.71
0.0038293800000000003,4821.71
0.00382999,5203.63
0.0038306100000000004,5615.9400000000005
0.00383122,6061.38
0.00383183,6542.97
0.0038324400000000003,7064.099999999999
0.00383305,7628.45
0.0038336700000000004,8240.19
0.0038342800000000002,8903.92
0.00383489,9624.800000000001
0.0038355000000000004,10408.599999999999
0.00383611,11262.0
0.00383672,12192.099999999999
0.0038373400000000003,13207.5
0.00383795,14317.3
0.00383852,15447.599999999999
0.00383901,16496.6
0.0038395,17626.8
0.0038399899999999997,18845.8
0.00384048,20162.2
0.00384097,21585.5
0.0038415100000000002,23305.1
0.00384205,25186.0
0.0038426000000000003,27246.800000000003
0.00384314,29508.3
0.0038436900000000003,31994.899999999998
0.00384409,34023.9
0.0038445000000000003,36207.799999999996
0.00384491,38561.200000000004
0.00384532,41100.2
0.0038457300000000003,43842.9
0.00384613,46809.1
0.0038465400000000003,50021.1
0.00384695,53503.600000000006
0.00384736,57284.7
0.0038477700000000004,61395.1
0.00384817,65869.8
0.0038485800000000003,70747.40000000001
0.00384899,76071.7
0.0038494000000000002,81890.90000000001
0.0038498100000000004,88259.79999999999
0.00385021,95238.6
0.0038506200000000003,102895.0
0.00385103,111304.0
0.0038514400000000002,120548.00000000001
0.00385184,130717.0
0.00385225,141911.0
0.0038526600000000004,154235.0
0.00385307,167800.0
0.00385348,182722.0
0.00385388,199118.0
0.0038542700000000004,215848.0
0.00385463,233365.0
0.003855,252299.0
0.0038553700000000003,272691.0
0.00385573,294551.0
0.0038561000000000003,317852.0
0.0038565900000000005,351023.0
0.0038572000000000003,395347.0
0.00385875,512688.0
0.00385924,547119.0
0.00385965,573120.0
0.00386006,595803.0
0.00386033,608709.0
0.00386073,623917.0
0.00386112,634401.0
0.00386143,639026.0
0.00386176,640706.0
0.00386212,638451.0
0.00386249,632052.0
0.00386286,621817.0
0.00386323,608162.0
0.00386359,591576.0
0.00386408,565829.0
0.00386482,522034.0
0.00386631,427812.00000000006
0.00386688,393772.0
0.0038674499999999997,361914.0
0.00386803,332538.0
0.0038686,305742.0
0.00386917,281477.0
0.0038697400000000004,259609.99999999997
0.00387031,239957.00000000003
0.00387088,222317.0
0.00387145,206483.00000000003
0.0038718900000000002,195511.0
0.0038723800000000004,184184.0
0.00387287,173831.0
0.00387336,164355.0
0.0038738500000000003,155668.0
0.00387434,147690.0
0.00387482,140351.0
0.00387556,130406.0
0.0038761000000000004,123764.99999999999
0.00387665,117669.0
0.00387746,109426.0
0.0038782800000000004,102121.0
0.0038790900000000004,95616.5
0.0038799100000000003,89801.40000000001
0.00388059,85413.5
0.0038812700000000005,81392.6
0.00388229,75963.4
0.00388331,71157.1
0.00388433,66878.5
0.00388535,63049.7
0.0038864100000000003,59478.0
0.00388747,56269.5
0.00388853,53376.6
0.00388959,50758.200000000004
0.00389065,48378.1
0.00389171,46205.99999999999
0.0038933,43285.5
0.00389451,41299.5
0.00389587,39276.9
0.0038972300000000002,37447.0
0.00389859,35785.1
0.00390063,33562.4
0.00390267,31613.8
0.00390471,29893.9
0.0039067500000000005,28366.4
0.0039087900000000005,27002.3
0.00391015,26171.8
0.00391287,24673.5
0.00391559,23360.4
0.00391824,22229.199999999997
0.00392089,21223.800000000003
0.0039235400000000005,20321.3
0.0039262,19507.399999999998
0.00392915,18691.6
0.00393211,17958.8
0.0039365500000000005,16989.7
0.00394126,16102.2
0.0039461,15311.9
0.00395094,14624.1
0.00395638,13949.9
0.00396182,13361.8
0.00396726,12844.199999999999
0.0039727,12387.300000000001
0.00398086,11795.4
0.00398698,11415.2
0.00399257,11115.8
0.00399665,10939.000000000002
0.0039994900000000005,10865.1
0.00400044,10862.7
0.00400129,10882.7
0.0040019999999999995,10933.6
0.00400247,11007.3
0.0040028600000000004,11118.699999999999
0.00400317,11264.6
0.0040034,11427.199999999999
0.00400363,11655.800000000001
0.004003860000000001,11974.7
0.00400405,12320.5
0.004004209999999999,12707.699999999999
0.00400438,13187.800000000001
0.004004540000000001,13778.1
0.00400465,14241.699999999999
0.0040047600000000004,14767.999999999998
0.004004870000000001,15344.599999999999
0.00400497,15970.7
0.00400507,16666.7
0.0040051800000000005,17436.8
0.00400528,18284.6
0.00400538,19213.5
0.0040054900000000004,20225.8
0.00400559,21323.2
0.00400572,22820.5
0.0040057999999999995,23785.2
0.00400596,25856.3
0.004006109999999999,28105.5
0.00400627,30513.3
0.004006490000000001,34064.4
0.00400704,43564.4
0.00400721,46302.3
0.0040073800000000005,48827.9
0.00400756,51135.799999999996
0.00400769,52577.299999999996
0.00400782,53861.100000000006
0.004007950000000001,54751.0
0.0040081,55493.2
0.004008230000000001,55824.299999999996
0.0040083,55860.5
0.00400844,55682.9
0.0040085699999999995,55204.3
0.00400872,54235.6
0.00400886,53067.6
0.004009,51544.4
0.00400919,49126.6
0.00400934,46966.700000000004
0.00400959,42855.100000000006
0.0040101600000000005,33091.7
0.0040103299999999995,30276.800000000003
0.0040104699999999995,28163.8
0.00401063,25869.100000000002
0.004010779999999999,23753.4
0.0040109,22291.9
0.0040110200000000006,20941.2
0.00401113,19819.2
0.00401123,18786.7
0.0040113399999999995,17841.5
0.00401145,16980.8
0.00401155,16201.000000000002
0.00401166,15498.0
0.00401176,14867.300000000001
0.00401187,14303.9
0.00401198,13802.7
0.00401214,13156.699999999999
0.0040123,12622.800000000001
0.004012450000000001,12184.6
0.00401261,11827.5
0.00401272,11627.6
0.00401291,11332.1
0.0040130999999999995,11103.8
0.00401339,10854.699999999999
0.00401368,10683.800000000001
0.00401406,10531.699999999999
0.0040146800000000005,10383.4
0.004015520000000001,10261.3
0.00401689,10135.5
0.00401952,9973.42
0.00402462,9753.51
0.004034220000000001,9433.439999999999
0.004044,9160.33
0.0040554300000000005,8883.64
0.0040729,8527.060000000001
0.0040906300000000005,8226.789999999999
0.0041080199999999996,7978.4
0.00412703,7747.39
0.00415266,7487.18
0.00418255,7240.01
0.00421824,7002.39
0.00425984,6782.07
0.00430737,6582.639999999999
0.004366050000000001,6389.929999999999
0.00443938,6205.12
0.00452739,6037.34
0.00463006,5889.57
0.004762069999999999,5747.54
0.00493808,5608.67
0.00515809,5482.54
0.00545172,5359.91
0.00586463,5232.820000000001
0.0065027900000000005,5085.34
0.0069279599999999995,5012.93
0.00699258,5009.58
0.007074830000000001,5022.58
0.00711595,5051.09
0.007141130000000001,5089.66
0.00715791,5134.96
0.007173860000000001,5206.66
0.00718519,5289.21
0.0071927399999999996,5369.6
0.00720029,5483.04
0.00720596,5601.58
0.00720974,5704.09
0.007214140000000001,5857.25
0.00721792,6028.71
0.00722044,6171.65
0.00722274,6329.12
0.007224840000000001,6500.17
0.00722694,6705.03
0.007229040000000001,6953.22
0.00723098,7232.66
0.0072323199999999995,7460.62
0.00723365,7724.4400000000005
0.00723499,8032.170000000001
0.00723633,8394.199999999999
0.00723757,8791.22
0.00723863,9184.480000000001
0.00723968,9641.550000000001
0.00724073,10177.099999999999
0.00724144,10587.0
0.00724214,11047.499999999998
0.00724284,11567.300000000001
0.00724347,12091.9
0.007244100000000001,12682.4
0.00724473,13350.2
0.00724536,14109.9
0.00724599,14979.4
0.00724641,15630.900000000001
0.00724683,16349.400000000001
0.00724725,17144.600000000002
0.00724767,18027.899999999998
0.0072480900000000004,19013.5
0.00724851,20118.0
0.00724893,21362.3
0.0072492400000000005,22402.3
0.0072495599999999995,23548.100000000002
0.00724989,24881.899999999998
0.00725022,26370.8
0.00725055,28040.600000000002
0.00725088,29922.7
0.00725113,31496.6
0.00725137,33230.7
0.00725162,35147.7
0.0072518700000000005,37273.5
0.00725212,39639.0
0.00725231,41684.200000000004
0.00725254,44269.9
0.0072527600000000005,47138.0
0.00725298,50325.8
0.00725321,53875.5
0.00725343,57834.0
0.0072536,61101.9
0.0072537700000000005,64651.899999999994
0.0072539300000000004,68509.2
0.00725407,71980.2
0.00725424,76476.5
0.00725441,81357.3
0.00725458,86650.8
0.00725474,92385.40000000001
0.00725491,98588.90000000001
0.0072550800000000006,105288.0
0.00725525,112507.0
0.00725541,119866.99999999999
0.00725563,131200.0
0.00725586,143588.0
0.007256090000000001,157044.0
0.00725631,171560.0
0.0072565400000000006,187099.0
0.00725678,204221.0
0.0072571300000000005,231560.0
0.0072575800000000005,268740.0
0.00725819,318892.0
0.00725849,342673.0
0.00725879,364566.0
0.00725909,383791.0
0.00725937,398446.0
0.00725958,407265.00000000006
0.00725978,414027.0
0.00725999,418598.0
0.0072602000000000005,420885.99999999994
0.0072603,421159.0
0.0072605199999999995,419865.0
0.007260740000000001,416026.0
0.00726096,409435.00000000006
0.00726119,400347.99999999994
0.00726142,388976.0
0.00726164,375579.0
0.007261940000000001,355074.0
0.00726225,332250.0
0.00726275,291178.0
0.00726337,239678.0
0.00726372,211876.0
0.00726396,194361.0
0.00726419,177828.0
0.007264420000000001,162899.0
0.00726465,149018.0
0.0072648700000000005,136205.0
0.007265100000000001,124452.99999999999
0.0072653299999999995,113735.99999999999
0.00726549,106793.0
0.00726565,99995.2
0.00726582,93697.2
0.007265990000000001,87873.0
0.007266160000000001,82494.9
0.0072663300000000005,77534.7
0.0072664900000000004,72964.3
0.00726666,68755.8
0.007266860000000001,64167.8
0.00726704,60522.799999999996
0.0072672100000000005,57179.0
0.00726739,54109.8
0.007267559999999999,51291.200000000004
0.00726779,47883.899999999994
0.007268030000000001,44832.9
0.0072682599999999995,42095.1
0.00726849,39632.1
0.0072687,37683.1
0.007268950000000001,35426.4
0.00726921,33401.9
0.00726947,31579.4
0.00726973,29932.6
0.0072699900000000005,28439.800000000003
0.00727034,26656.0
0.007270690000000001,25075.2
0.0072710299999999995,23666.6
0.00727138,22405.7
0.0072718,21045.8
0.00727222,19843.1
0.00727264,18773.7
0.0072730600000000005,17818.0
0.007273480000000001,16960.1
0.007273900000000001,16186.9
0.007274320000000001,15487.4
0.00727494,14556.3
0.00727557,13745.199999999999
0.0072762,13033.999999999998
0.007276830000000001,12406.699999999999
0.0072774599999999995,11850.400000000001
0.00727809,11354.800000000001
0.00727883,10838.2
0.00727957,10382.199999999999
0.00728031,9977.34
0.00728105,9616.300000000001
0.00728216,9143.66
0.00728327,8739.48
0.00728447,8365.199999999999
0.007285840000000001,7999.85
0.00728722,7690.1
0.0072886,7425.13
0.00729043,7127.39
0.0072924,6863.889999999999
0.007294500000000001,6631.84
0.0072966,6439.16
0.0072987,6277.38
0.00730111,6121.43
0.007303840000000001,5975.58
0.00730793,5802.1900000000005
0.00731254,5653.04
0.0073182099999999995,5516.2699999999995
0.0073238700000000006,5414.19
0.00732954,5335.9
0.00733709,5256.89
0.007349260000000001,5168.64
0.007366050000000001,5091.9800000000005
0.0073912199999999996,5025.15
0.00742479,4975.97
0.00748522,4929.88
0.007630410000000001,4876.719999999999
0.00828941,4736.570000000001
0.008560219999999999,4697.3
0.00857827,4697.0
0.008659509999999999,4710.67
0.008704650000000001,4745.110000000001
0.00873173,4792.86
0.00874978,4850.450000000001
0.00876295,4917.469999999999
0.00877536,5015.2
0.00878288,5101.56
0.00879041,5220.83
0.00879605,5342.55
0.008799810000000002,5445.65
0.00880357,5572.56
0.008806900000000001,5710.87
0.0088098,5857.22
0.00881269,6035.1
0.00881559,6254.09
0.00881811,6488.59
0.00882025,6729.94
0.008821859999999999,6942.69
0.00882347,7189.03
0.00882508,7476.63
0.00882636,7743.34
0.008827870000000002,8104.83
0.008829,8418.630000000001
0.00883012,8776.66
0.00883125,9187.64
0.00883238,9662.55
0.008833510000000001,10215.4
0.00883426,10635.9
0.00883501,11105.7
0.00883577,11632.6
0.00883652,12226.300000000001
0.00883727,12898.7
0.00883793,13567.0
0.008838509999999999,14211.5
0.00883908,14928.4
0.008839650000000001,15728.800000000001
0.008840220000000001,16626.5
0.008840790000000001,17637.7
0.00884136,18782.7
0.00884179,19743.8
0.00884222,20806.2
0.00884274,22249.3
0.00884309,23321.100000000002
0.00884343,24493.5
0.00884378,25779.100000000002
0.00884413,27192.5
0.00884447,28750.399999999998
0.00884482,30472.199999999997
0.008845140000000001,32249.500000000004
0.00884544,34066.9
0.00884574,36061.4
0.008846040000000001,38254.0
0.00884634,40667.7
0.008846640000000001,43328.2
0.00884695,46262.9
0.008847250000000001,49501.5
0.00884752,52702.299999999996
0.00884776,55794.7
0.008848000000000002,59137.5
0.00884824,62747.200000000004
0.00884848,66640.2
0.008848720000000001,70831.5
0.00884896,75334.4
0.0088492,80159.90000000001
0.00884953,87335.49999999999
0.00884985,94774.6
0.008850160000000001,102780.0
0.008850479999999999,111325.99999999999
0.0088509,123469.99999999999
0.008851369999999999,137702.0
0.00885245,171698.0
0.00885283,182849.0
